scl , ecg , emg_trap
3.656,6882.6,-21049
3.6566,6877.7,-21050
3.657,6880,-21045
3.6576,6883,-21041
3.658,6884.2,-21032
3.658,6880,-21031
3.658,6873.1,-21039
3.6586,6874.8,-21042
3.659,6870.6,-21048
3.659,6869.3,-21044
3.659,6872.6,-21038
3.659,6872.6,-21038
3.659,6874.4,-21039
3.6595,6885.6,-21034
3.66,6885,-21030
3.66,6881.1,-21036
3.66,6877.1,-21036
3.6606,6875.6,-21035
3.661,6871.9,-21038
3.661,6869.5,-21042
3.661,6870.5,-21045
3.6616,6867.4,-21044
3.6614,6869.9,-21034
3.6616,6873.4,-21035
3.662,6874.6,-21033
3.662,6872.5,-21028
3.6626,6875,-21034
3.663,6870.9,-21044
3.663,6866.6,-21045
3.663,6867.9,-21056
3.663,6863.1,-21061
3.663,6862.7,-21049
3.663,6862.4,-21035
3.6635,6864.7,-21032
3.664,6867.9,-21031
3.664,6867.5,-21020
3.6646,6868.2,-21024
3.665,6860.6,-21038
3.665,6861.2,-21045
3.665,6861.3,-21048
3.6656,6866.1,-21042
3.666,6867.1,-21045
3.666,6859.4,-21038
3.666,6862.5,-21025
3.666,6865.2,-21025
3.666,6861.4,-21022
3.6665,6861.2,-21024
3.667,6856.7,-21027
3.667,6855.6,-21033
3.667,6856.7,-21039
3.667,6851,-21029
3.6675,6852.4,-21038
3.668,6860.5,-21042
3.668,6865.6,-21037
3.668,6870,-21035
3.6685,6872.8,-21034
3.669,6875.7,-21035
3.669,6878.7,-21030
3.669,6890.4,-21030
3.669,6886.7,-21032
3.6695,6887.3,-21041
3.67,6894.1,-21047
3.67,6914,-21041
3.67,6932.8,-21040
3.6705,6939.1,-21041
3.671,6957.3,-21035
3.671,6958.3,-21035
3.671,6944.8,-21035
3.671,6945.2,-21030
3.671,6953.1,-21037
3.6715,6962.6,-21043
3.672,6977.9,-21043
3.672,6996.7,-21047
3.672,7007.8,-21049
3.6725,7018.8,-21040
3.673,7037.3,-21027
3.673,7065.2,-21035
3.673,7084.8,-21038
3.6735,7084.6,-21038
3.6735,7072.9,-21046
3.6735,7068.8,-21040
3.674,7072.5,-21040
3.6745,7066.4,-21035
3.675,7058.5,-21025
3.675,7062.8,-21027
3.675,7055.1,-21032
3.675,7008.7,-21031
3.675,6962.8,-21031
3.675,6936.9,-21032
3.6755,6916.5,-21032
3.676,6905.7,-21037
3.676,6892.6,-21043
3.676,6880.4,-21046
3.676,6875.2,-21044
3.6765,6873.1,-21043
3.677,6864.2,-21048
3.677,6851.5,-21045
3.677,6845.9,-21044
3.6775,6833.6,-21043
3.678,6829.6,-21051
3.678,6826.4,-21052
3.678,6821.4,-21047
3.678,6823,-21047
3.678,6821.4,-21045
3.6785,6824.3,-21047
3.6785,6826.5,-21044
3.6785,6818.8,-21039
3.679,6816,-21044
3.6795,6820.7,-21041
3.68,6814.3,-21043
3.68,6812,-21049
3.68,6816.1,-21044
3.68,6811.6,-21045
3.68,6815,-21048
3.68,6811.1,-21042
3.6805,6809.1,-21049
3.681,6813.6,-21050
3.681,6815.4,-21044
3.6815,6813.1,-21043
3.6815,6814.4,-21051
3.6815,6808.6,-21053
3.682,6804,-21059
3.682,6802.6,-21066
3.682,6799.6,-21052
3.682,6801.5,-21045
3.6825,6804.4,-21047
3.683,6806.4,-21045
3.683,6805.5,-21028
3.683,6804.9,-21028
3.6835,6807.3,-21046
3.684,6804.6,-21050
3.684,6805.6,-21059
3.684,6806.9,-21057
3.684,6804.2,-21055
3.684,6815.1,-21057
3.684,6821.2,-21048
3.6845,6820.8,-21042
3.685,6828.4,-21029
3.685,6822,-21035
3.685,6820.8,-21049
3.6855,6826,-21047
3.6855,6813.4,-21052
3.6855,6798.9,-21055
3.686,6782.6,-21060
3.686,6774.5,-21068
3.686,6795.7,-21065
3.6865,6841.7,-21048
3.687,6905.4,-21045
3.687,6980.7,-21050
3.687,7087.3,-21053
3.6875,7240.5,-21057
3.6875,7402.8,-21053
3.6875,7541.5,-21055
3.688,7685.7,-21050
3.688,7902.8,-21046
3.688,8117.7,-21034
3.688,8265.1,-21020
3.688,8379.2,-21007
3.6885,8405.6,-20973
3.689,8178.5,-20961
3.689,7753.8,-20958
3.689,7311,-20958
3.689,6891.8,-20961
3.6895,6598.3,-20961
3.6895,6461.6,-20979
3.6895,6340.2,-20988
3.69,6250.1,-20997
3.69,6221.7,-21005
3.69,6201.6,-21005
3.6905,6219.1,-21008
3.691,6273.8,-21014
3.691,6343.9,-21032
3.691,6410.3,-21049
3.691,6499.4,-21047
3.691,6602.5,-21050
3.6915,6686.4,-21057
3.6915,6746,-21051
3.6915,6797.7,-21047
3.692,6845.9,-21042
3.692,6871.2,-21035
3.6925,6889.4,-21045
3.693,6898.1,-21044
3.693,6896.9,-21042
3.693,6889.8,-21053
3.693,6888.5,-21049
3.693,6902,-21050
3.6935,6897.6,-21046
3.6935,6895.6,-21039
3.6935,6900.2,-21040
3.694,6896.7,-21045
3.694,6898.5,-21045
3.694,6902.5,-21044
3.694,6908.6,-21049
3.694,6916.5,-21052
3.6945,6918.6,-21052
3.695,6921.8,-21051
3.695,6926.4,-21050
3.695,6930.6,-21048
3.695,6934.5,-21052
3.6955,6931.6,-21045
3.6955,6938.2,-21046
3.6955,6944,-21051
3.696,6942.4,-21045
3.696,6941.7,-21050
3.696,6941,-21058
3.696,6938.8,-21051
3.696,6946.3,-21053
3.6965,6951.3,-21054
3.697,6954.8,-21048
3.697,6958.2,-21052
3.697,6958.1,-21053
3.6975,6963.3,-21050
3.698,6964.8,-21043
3.698,6966.1,-21050
3.698,6969.1,-21053
3.698,6970.4,-21057
3.698,6970.6,-21057
3.698,6973.3,-21047
3.698,6983.6,-21045
3.6985,6990.3,-21041
3.699,6989.2,-21045
3.699,6991.8,-21057
3.699,6993.4,-21048
3.699,6990.9,-21055
3.6995,6990.5,-21065
3.7,7001.7,-21060
3.6995,7015.5,-21054
3.6995,7016.2,-21048
3.7,7022.2,-21044
3.7,7022.4,-21044
3.7,7023.1,-21044
3.7,7027.2,-21038
3.7005,7024.8,-21044
3.701,7023.5,-21052
3.701,7022.8,-21047
3.701,7027.2,-21049
3.7015,7031.2,-21059
3.7015,7033.1,-21059
3.701,7037.1,-21056
3.701,7049.9,-21055
3.7015,7044.9,-21048
3.702,7049.2,-21049
3.702,7066.3,-21049
3.702,7065.6,-21049
3.702,7062.6,-21056
3.702,7072.1,-21059
3.7025,7082.7,-21053
3.703,7083.6,-21052
3.703,7092,-21054
3.703,7099.3,-21047
3.703,7100,-21051
3.703,7103.3,-21054
3.7035,7105.6,-21050
3.704,7106.1,-21053
3.704,7107.7,-21054
3.704,7115.1,-21057
3.704,7123.2,-21059
3.704,7128.5,-21055
3.704,7135.7,-21049
3.704,7144.1,-21052
3.704,7148.4,-21052
3.7045,7149.1,-21049
3.705,7153.1,-21057
3.705,7162.2,-21059
3.705,7162.7,-21055
3.705,7167,-21054
3.705,7183.6,-21059
3.705,7194.4,-21061
3.705,7202.3,-21054
3.7055,7207,-21052
3.706,7214.1,-21054
3.706,7218,-21052
3.706,7216.4,-21049
3.706,7219.1,-21055
3.7065,7227.2,-21055
3.7065,7232.1,-21056
3.7065,7239,-21060
3.707,7249.8,-21060
3.707,7251.8,-21056
3.707,7255.8,-21055
3.707,7264.4,-21052
3.707,7273.1,-21051
3.707,7273.1,-21051
3.7075,7273.1,-21050
3.708,7274.1,-21053
3.708,7276.4,-21056
3.7075,7282.6,-21062
3.7075,7283.1,-21061
3.708,7291.1,-21057
3.7085,7298.2,-21054
3.7085,7298.8,-21051
3.7085,7297.8,-21052
3.709,7294.9,-21055
3.709,7297.3,-21056
3.709,7295.4,-21059
3.709,7288.7,-21063
3.709,7286.4,-21066
3.709,7289.8,-21061
3.709,7283.8,-21056
3.709,7274.6,-21057
3.7095,7271.8,-21054
3.71,7262.7,-21052
3.71,7249.3,-21054
3.71,7233.9,-21055
3.71,7219.7,-21056
3.71,7207.8,-21064
3.71,7196.9,-21064
3.7105,7178.3,-21061
3.7105,7162.7,-21066
3.7105,7144.1,-21063
3.711,7124.6,-21059
3.711,7106.1,-21052
3.711,7085.6,-21050
3.711,7072.8,-21055
3.711,7055.4,-21053
3.711,7039.8,-21058
3.7115,7021.8,-21064
3.712,7006.4,-21063
3.712,6996.6,-21061
3.712,6983.8,-21061
3.712,6978.1,-21061
3.712,6966.6,-21059
3.712,6952,-21056
3.712,6941.4,-21060
3.712,6927.9,-21061
3.7125,6920.1,-21061
3.713,6915.8,-21063
3.7125,6911.6,-21062
3.7125,6904.2,-21065
3.713,6897.5,-21064
3.713,6902.2,-21060
3.713,6900.5,-21059
3.713,6896,-21055
3.713,6892.3,-21059
3.7135,6891.7,-21059
3.714,6895.6,-21063
3.7135,6889.2,-21066
3.7135,6885.2,-21063
3.714,6891,-21062
3.714,6890,-21063
3.714,6891,-21062
3.714,6892.4,-21058
3.714,6887.9,-21057
3.714,6886,-21058
3.714,6887.7,-21058
3.714,6885.1,-21065
3.714,6882.7,-21067
3.714,6883.7,-21067
3.7145,6883.3,-21070
3.715,6890.9,-21064
3.715,6900.2,-21057
3.715,6900.6,-21056
3.715,6899.2,-21055
3.715,6896.8,-21057
3.715,6901.2,-21058
3.7155,6896,-21060
3.716,6890.1,-21065
3.716,6891.5,-21067
3.716,6891.4,-21066
3.716,6897.6,-21062
3.716,6900.4,-21059
3.716,6906.3,-21058
3.716,6914.1,-21057
3.716,6916.2,-21056
3.7165,6913.3,-21057
3.717,6913.8,-21062
3.717,6908.9,-21065
3.717,6906,-21062
3.7165,6909.8,-21063
3.7165,6912.9,-21069
3.717,6915.2,-21063
3.717,6916.6,-21057
3.717,6922.8,-21061
3.7175,6916.7,-21061
3.7175,6916.3,-21060
3.717,6921.4,-21061
3.7175,6918.2,-21065
3.7175,6918.8,-21065
3.717,6915.9,-21067
3.7175,6918.2,-21066
3.718,6924.4,-21066
3.718,6928.1,-21068
3.718,6927.9,-21064
3.718,6934.1,-21058
3.718,6936.1,-21060
3.718,6931.6,-21066
3.718,6929.2,-21066
3.7185,6927.4,-21069
3.719,6930.9,-21069
3.7185,6929.9,-21068
3.7185,6932.1,-21068
3.7185,6935.2,-21065
3.7185,6938.4,-21061
3.719,6942.1,-21059
3.719,6937.3,-21061
3.719,6932.3,-21065
3.719,6931.3,-21069
3.7195,6927.9,-21068
3.72,6930.4,-21070
3.72,6930.9,-21076
3.7195,6925.5,-21072
3.7195,6926.5,-21065
3.72,6931.2,-21066
3.72,6930.9,-21061
3.72,6929.6,-21057
3.72,6929.6,-21065
3.72,6926.4,-21068
3.72,6926.1,-21069
3.72,6928.1,-21071
3.72,6921.9,-21072
3.72,6919.6,-21072
3.7205,6918.1,-21073
3.721,6921,-21068
3.721,6923.6,-21062
3.721,6918.1,-21065
3.721,6920.9,-21070
3.721,6922.1,-21068
3.721,6915.5,-21070
3.7215,6909.1,-21073
3.7215,6912.9,-21072
3.721,6911.2,-21074
3.7215,6911.2,-21073
3.7215,6915.6,-21067
3.7215,6919.4,-21064
3.722,6920.9,-21064
3.722,6913.8,-21064
3.722,6914,-21065
3.722,6919.7,-21070
3.7215,6915.9,-21071
3.7215,6909.7,-21075
3.722,6911.8,-21078
3.722,6915.7,-21071
3.722,6916.7,-21070
3.722,6918,-21068
3.722,6917,-21065
3.722,6914.6,-21060
3.722,6913.9,-21068
3.7225,6910.6,-21073
3.723,6907.7,-21071
3.723,6907.3,-21077
3.723,6905.7,-21077
3.723,6907.1,-21075
3.723,6912.4,-21069
3.723,6911.3,-21064
3.723,6909.7,-21067
3.723,6908.6,-21062
3.723,6905.8,-21059
3.723,6904.4,-21069
3.7235,6898.7,-21074
3.724,6899.1,-21079
3.7235,6904,-21083
3.7235,6900.9,-21079
3.724,6904.4,-21074
3.724,6916.2,-21068
3.724,6915.2,-21067
3.724,6908.1,-21067
3.724,6905.1,-21071
3.724,6903.7,-21070
3.724,6905.2,-21073
3.724,6903.7,-21078
3.724,6904.4,-21076
3.724,6904.3,-21076
3.724,6907.9,-21075
3.724,6910.6,-21071
3.724,6911.6,-21067
3.7245,6912,-21064
3.725,6906.3,-21068
3.725,6911,-21077
3.725,6910.8,-21080
3.725,6903.5,-21082
3.725,6900.7,-21085
3.725,6901.1,-21087
3.725,6902.2,-21078
3.725,6909.4,-21069
3.725,6915.1,-21064
3.7254,6919.6,-21062
3.7256,6925.5,-21063
3.7254,6932.9,-21062
3.7256,6943,-21064
3.7254,6947.2,-21071
3.726,6952.1,-21072
3.726,6957.8,-21069
3.7256,6984.4,-21070
3.7254,7014.6,-21075
3.726,7016.5,-21075
3.726,7024.6,-21074
3.726,7034.5,-21067
3.726,7025.8,-21068
3.726,7015.5,-21069
3.726,7024.3,-21066
3.726,7029.1,-21069
3.726,7043.1,-21071
3.726,7062.1,-21070
3.726,7075.6,-21069
3.7264,7078.7,-21068
3.727,7092.4,-21061
3.727,7120.6,-21054
3.727,7141,-21053
3.727,7149.6,-21058
3.727,7137.1,-21069
3.727,7124.2,-21072
3.727,7134.3,-21073
3.727,7141.9,-21075
3.727,7137.4,-21070
3.727,7133.2,-21062
3.727,7124.3,-21057
3.727,7086.2,-21054
3.727,7039.3,-21056
3.727,7004.5,-21060
3.727,6979.4,-21064
3.727,6965.4,-21066
3.7274,6948.1,-21074
3.7276,6930.3,-21075
3.727,6929.5,-21073
3.727,6931.1,-21069
3.7274,6924.1,-21066
3.728,6914.5,-21069
3.728,6909.4,-21069
3.728,6902.9,-21074
3.728,6888.6,-21078
3.728,6882.3,-21081
3.728,6883.3,-21082
3.728,6883.9,-21082
3.728,6880.1,-21078
3.728,6879.6,-21074
3.728,6883.5,-21075
3.728,6887.2,-21072
3.7284,6881.2,-21069
3.729,6876.1,-21069
3.729,6881.1,-21070
3.729,6876.9,-21069
3.729,6867.6,-21074
3.729,6868.9,-21077
3.7286,6870.9,-21077
3.7284,6870.2,-21074
3.729,6870.6,-21070
3.729,6870.9,-21075
3.729,6867.8,-21073
3.729,6863,-21072
3.729,6864.4,-21075
3.729,6860,-21078
3.729,6856.4,-21079
3.729,6854.4,-21078
3.729,6856.7,-21074
3.729,6863.8,-21074
3.729,6865.5,-21078
3.729,6864.4,-21080
3.729,6865,-21079
3.7294,6867,-21077
3.7296,6870.1,-21071
3.729,6874.2,-21066
3.7294,6873.5,-21068
3.73,6874.4,-21065
3.73,6873,-21068
3.7296,6875.3,-21070
3.7294,6880.6,-21067
3.73,6884,-21065
3.73,6889,-21061
3.73,6893,-21064
3.73,6891.2,-21068
3.73,6884.8,-21070
3.73,6873,-21080
3.73,6857.9,-21092
3.73,6842.7,-21096
3.7304,6834.8,-21099
3.7306,6866.8,-21096
3.73,6922.1,-21091
3.7304,6984.5,-21078
3.7306,7076.6,-21076
3.73,7216.3,-21077
3.73,7383.6,-21074
3.7304,7551.4,-21075
3.7306,7696.1,-21073
3.7304,7870.6,-21066
3.731,8101,-21061
3.731,8286.2,-21056
3.731,8442.7,-21044
3.731,8521.9,-21026
3.731,8475.6,-20991
3.731,8167.9,-20970
3.731,7689.5,-20977
3.731,7231.4,-20985
3.731,6797.7,-20985
3.731,6565.1,-20998
3.731,6417.1,-21012
3.731,6274.9,-21025
3.731,6223.7,-21036
3.731,6198.2,-21041
3.7314,6217.2,-21041
3.732,6280.5,-21042
3.7316,6356.4,-21057
3.731,6451.5,-21076
3.7314,6562.3,-21080
3.7316,6669.5,-21078
3.7314,6754.5,-21082
3.732,6825.1,-21077
3.7316,6885.6,-21068
3.7314,6934.2,-21056
3.732,6958.8,-21059
3.732,6965.1,-21063
3.732,6963.5,-21063
3.732,6961.3,-21067
3.732,6959.6,-21072
3.732,6958.3,-21075
3.732,6966.6,-21077
3.732,6976.5,-21073
3.732,6979.4,-21070
3.7324,6986.1,-21069
3.7326,6988.8,-21069
3.732,6988.8,-21070
3.732,6987.9,-21067
3.7324,6991.2,-21068
3.733,6992.5,-21070
3.7326,6990.2,-21073
3.7324,6995,-21077
3.733,7004.2,-21076
3.733,7008.5,-21074
3.7326,7012.2,-21075
3.7324,7015.9,-21071
3.733,7018.2,-21068
3.733,7017.2,-21075
3.733,7019.6,-21074
3.733,7022.2,-21074
3.7326,7022.4,-21079
3.7324,7024.5,-21080
3.733,7029.2,-21081
3.733,7035.6,-21085
3.733,7043.5,-21080
3.733,7049.3,-21075
3.733,7047.6,-21072
3.733,7051.5,-21077
3.7334,7059.7,-21074
3.7336,7055.6,-21074
3.733,7054.5,-21078
3.733,7061.4,-21086
3.733,7065.3,-21083
3.733,7073.1,-21079
3.733,7075.9,-21078
3.733,7078.7,-21079
3.7334,7079.9,-21080
3.734,7086.6,-21071
3.734,7084.8,-21068
3.734,7079.5,-21067
3.734,7081.7,-21070
3.734,7088.5,-21070
3.734,7092.9,-21067
3.734,7099.2,-21064
3.734,7107,-21062
3.734,7110.7,-21064
3.734,7110.3,-21069
3.734,7107.1,-21067
3.7344,7116.8,-21067
3.735,7119.1,-21068
3.7346,7116.3,-21067
3.734,7123.1,-21072
3.734,7129.8,-21079
3.7344,7133.4,-21076
3.735,7141.3,-21072
3.7346,7152.9,-21070
3.7344,7155.1,-21065
3.735,7155.3,-21065
3.735,7161.7,-21069
3.735,7165.1,-21071
3.735,7163.5,-21069
3.735,7163.5,-21071
3.735,7168.1,-21077
3.735,7174.5,-21071
3.735,7180.2,-21071
3.735,7190.2,-21073
3.735,7193.8,-21065
3.735,7197.4,-21060
3.735,7201.7,-21062
3.735,7209.5,-21060
3.735,7215.3,-21064
3.735,7214.6,-21073
3.735,7222.6,-21077
3.735,7229.9,-21074
3.735,7235.1,-21077
3.7354,7243.7,-21075
3.7356,7255,-21070
3.7354,7261.7,-21070
3.736,7267.4,-21075
3.736,7274.6,-21076
3.736,7281.3,-21073
3.7356,7282.5,-21076
3.735,7288,-21074
3.7354,7295,-21073
3.736,7301,-21070
3.736,7307.4,-21073
3.736,7318.5,-21070
3.736,7322.3,-21064
3.736,7328.9,-21064
3.7356,7335,-21059
3.7354,7336.9,-21057
3.736,7340.9,-21062
3.736,7350.5,-21069
3.736,7357.7,-21070
3.736,7361.6,-21071
3.736,7373.8,-21063
3.736,7378.3,-21063
3.736,7382.7,-21061
3.736,7387.6,-21062
3.736,7387,-21063
3.736,7390.7,-21064
3.736,7397,-21070
3.736,7400,-21069
3.736,7402.7,-21072
3.7364,7410.3,-21069
3.7366,7413.6,-21067
3.736,7417.3,-21063
3.7364,7420.3,-21058
3.7366,7422.6,-21060
3.7364,7420.3,-21059
3.737,7411.5,-21058
3.737,7412.7,-21065
3.737,7410,-21070
3.737,7404.7,-21069
3.737,7403.1,-21071
3.7366,7398.3,-21071
3.7364,7390.8,-21064
3.737,7384.6,-21060
3.737,7367.7,-21061
3.737,7352.4,-21062
3.737,7335.6,-21068
3.737,7313.8,-21067
3.737,7298.1,-21067
3.7366,7286.7,-21065
3.7364,7266.7,-21066
3.737,7253.4,-21071
3.737,7242,-21071
3.737,7226.3,-21073
3.737,7206.4,-21067
3.737,7186.5,-21069
3.737,7167,-21071
3.737,7149.6,-21064
3.737,7133,-21064
3.737,7117.2,-21064
3.737,7102.9,-21070
3.737,7085.9,-21067
3.737,7080.1,-21060
3.737,7072.3,-21053
3.7374,7061.5,-21055
3.7376,7053.3,-21064
3.737,7043.4,-21066
3.737,7035.3,-21072
3.737,7021.2,-21081
3.7374,7011.9,-21079
3.7376,7009.5,-21073
3.737,7008.4,-21071
3.737,7007.8,-21068
3.737,7010.8,-21061
3.7374,7009.6,-21059
3.7376,7003.7,-21062
3.737,7002.5,-21063
3.7374,7002,-21060
3.7376,6993.7,-21059
3.7374,6987.9,-21062
3.7376,6996.4,-21068
3.7374,6996.9,-21067
3.738,6995.1,-21066
3.7376,6996.9,-21062
3.7374,6996.1,-21057
3.738,6997.2,-21058
3.738,6995.9,-21062
3.7376,6995.1,-21072
3.7374,6993.5,-21070
3.738,6991.2,-21069
3.738,6993.2,-21083
3.7376,6996.3,-21080
3.7374,6998.7,-21075
3.738,6998.6,-21071
3.738,7001.8,-21062
3.738,7008.6,-21058
3.738,7010.6,-21058
3.738,7012.5,-21056
3.738,7015.4,-21061
3.738,7012.9,-21066
3.738,7018.1,-21068
3.738,7013.7,-21070
3.738,7010.5,-21065
3.738,7017,-21067
3.738,7018.9,-21065
3.738,7016.4,-21061
3.738,7018.9,-21063
3.738,7020.1,-21065
3.738,7019.9,-21066
3.738,7014.6,-21066
3.738,7015,-21069
3.738,7016.5,-21070
3.738,7016.4,-21066
3.738,7021.3,-21070
3.738,7024.1,-21067
3.738,7025.5,-21063
3.7384,7021.6,-21061
3.739,7020.5,-21062
3.7386,7019.9,-21067
3.738,7022.7,-21067
3.7384,7021.6,-21067
3.7386,7023.3,-21072
3.7384,7025.8,-21073
3.7386,7029.3,-21068
3.738,7029.9,-21066
3.738,7031,-21065
3.7383,7035.6,-21062
3.7387,7032.4,-21064
3.738,7034.1,-21068
3.738,7033.4,-21075
3.738,7028.3,-21077
3.738,7027.5,-21076
3.738,7032.8,-21075
3.738,7033.8,-21082
3.738,7038.1,-21078
3.738,7037.5,-21073
3.7383,7033.4,-21074
3.7387,7033.5,-21074
3.738,7030.5,-21074
3.738,7027,-21070
3.738,7025.3,-21068
3.738,7025.9,-21068
3.738,7029.8,-21067
3.738,7029.4,-21060
3.7383,7033.3,-21061
3.7387,7041.2,-21056
3.738,7037.8,-21060
3.738,7034,-21060
3.7383,7030,-21062
3.739,7023.8,-21066
3.7387,7023.4,-21066
3.738,7022.3,-21074
3.738,7021.4,-21081
3.738,7018.6,-21074
3.7383,7023,-21069
3.7387,7026,-21065
3.7383,7024.2,-21061
3.739,7016.2,-21059
3.739,7017.5,-21056
3.7387,7019.4,-21064
3.738,7017.9,-21069
3.738,7011.6,-21072
3.7383,7010.6,-21078
3.739,7010.1,-21081
3.739,7012.9,-21076
3.739,7022.9,-21073
3.7387,7024.6,-21073
3.7383,7014.1,-21072
3.739,7013.1,-21067
3.739,7010.5,-21065
3.7387,7001.2,-21065
3.738,7000.5,-21069
3.738,7006.5,-21074
3.7383,7008.7,-21071
3.739,7007.1,-21068
3.739,7011.9,-21065
3.739,7020,-21067
3.739,7017.2,-21062
3.7387,7013.2,-21064
3.738,7014.5,-21066
3.7383,7012.6,-21069
3.7387,7006.4,-21068
3.738,7007.6,-21071
3.738,7009.9,-21073
3.738,7008.5,-21075
3.738,7010.5,-21082
3.738,7015.7,-21083
3.7383,7011.7,-21078
3.7387,7012.1,-21073
3.738,7012.2,-21074
3.7383,7003.7,-21074
3.739,6998.3,-21069
3.7387,7001.5,-21067
3.738,7004.8,-21069
3.738,7003.6,-21069
3.7383,7008,-21061
3.7387,7013.9,-21058
3.738,7013.1,-21057
3.738,7006.5,-21056
3.738,7006.8,-21062
3.738,7005.8,-21062
3.738,7002.1,-21065
3.738,7002.7,-21070
3.738,7003.6,-21074
3.738,6998.9,-21072
3.738,7005.7,-21069
3.738,7013.8,-21072
3.738,7014,-21070
3.738,7008.3,-21073
3.738,7003.1,-21075
3.738,7007,-21071
3.738,7000.5,-21070
3.738,6997.8,-21065
3.738,6998.1,-21062
3.738,6998.2,-21066
3.738,7002,-21066
3.738,7003,-21061
3.738,7004.9,-21059
3.738,7010.1,-21059
3.738,7013.6,-21059
3.738,7005.7,-21065
3.738,7002.4,-21072
3.738,7000.9,-21071
3.738,7004.4,-21069
3.738,7007.9,-21071
3.738,7012.5,-21071
3.738,7024.9,-21072
3.738,7025.2,-21073
3.738,7025.9,-21075
3.738,7031.9,-21074
3.738,7047.6,-21068
3.738,7054.7,-21071
3.738,7055.1,-21072
3.738,7070.8,-21069
3.7377,7098.9,-21061
3.7373,7111.5,-21061
3.738,7116.3,-21061
3.7377,7133.2,-21053
3.7373,7133.6,-21054
3.7377,7127.4,-21058
3.7373,7120.3,-21063
3.7377,7129.9,-21072
3.7373,7134.5,-21073
3.7377,7150.9,-21072
3.737,7166.9,-21074
3.737,7174.1,-21070
3.737,7180.7,-21067
3.7373,7199.1,-21066
3.7377,7227,-21063
3.737,7251.1,-21062
3.737,7249.3,-21059
3.737,7236,-21065
3.737,7227.2,-21071
3.737,7228.1,-21073
3.737,7231.5,-21074
3.737,7229.9,-21069
3.737,7211.8,-21073
3.737,7186.1,-21070
3.737,7149.1,-21068
3.737,7112.8,-21064
3.737,7083.9,-21064
3.737,7072.6,-21063
3.737,7056.8,-21060
3.737,7041.1,-21062
3.737,7030.9,-21068
3.737,7025.4,-21069
3.737,7030.1,-21070
3.737,7021.7,-21068
3.737,7014.9,-21065
3.737,7004.8,-21063
3.737,6990.6,-21065
3.737,6983,-21064
3.737,6982,-21074
3.737,6979.8,-21084
3.737,6980.5,-21088
3.737,6980.6,-21084
3.737,6979,-21077
3.737,6980.2,-21069
3.737,6982.1,-21061
3.737,6977,-21054
3.737,6974.3,-21059
3.737,6973.8,-21063
3.737,6972.2,-21067
3.737,6969.7,-21065
3.7367,6966.6,-21071
3.7363,6970.8,-21073
3.737,6972,-21074
3.7367,6973,-21070
3.736,6971.7,-21068
3.736,6967.6,-21067
3.7363,6966.6,-21065
3.7367,6966,-21065
3.7363,6962.5,-21071
3.7367,6959.5,-21070
3.736,6959.9,-21069
3.736,6963.1,-21075
3.736,6969.8,-21073
3.736,6966.4,-21069
3.736,6970.4,-21068
3.736,6973.5,-21066
3.736,6971.6,-21065
3.736,6969.7,-21066
3.736,6967.8,-21069
3.736,6967.2,-21074
3.736,6964.6,-21077
3.736,6967.2,-21081
3.736,6972.8,-21077
3.736,6977.1,-21074
3.7357,6974.9,-21071
3.7353,6981.9,-21069
3.736,6984.4,-21067
3.736,6985.1,-21071
3.7357,6968.9,-21082
3.7353,6949,-21090
3.736,6941.3,-21096
3.7357,6927.6,-21098
3.735,6949,-21098
3.735,7013.1,-21084
3.7353,7077.3,-21072
3.7357,7149.7,-21071
3.735,7266.1,-21078
3.7353,7431.3,-21076
3.7357,7593.7,-21083
3.735,7748,-21085
3.735,7899.6,-21084
3.735,8103.9,-21075
3.735,8308.2,-21060
3.735,8474.2,-21044
3.735,8565.5,-21031
3.735,8551.9,-20992
3.735,8325.6,-20967
3.735,7850.3,-20966
3.735,7409.9,-20977
3.735,6985.7,-20983
3.735,6709.2,-20977
3.735,6553.4,-20991
3.735,6392.4,-21010
3.735,6315,-21027
3.7347,6274.6,-21034
3.734,6289.5,-21033
3.734,6364,-21037
3.7343,6460.5,-21048
3.735,6582.2,-21058
3.7347,6702,-21059
3.7343,6792.8,-21062
3.7347,6880.4,-21072
3.734,6954.2,-21072
3.734,7005.7,-21069
3.734,7032.9,-21064
3.734,7056.5,-21063
3.734,7061.8,-21062
3.734,7055.2,-21065
3.734,7054.8,-21072
3.734,7063,-21077
3.734,7056.8,-21080
3.734,7055.5,-21079
3.734,7065.5,-21077
3.734,7068,-21074
3.7337,7072.1,-21068
3.7333,7077.3,-21054
3.734,7079.4,-21051
3.734,7083.6,-21056
3.734,7085.7,-21061
3.7337,7086.9,-21065
3.7333,7086.8,-21064
3.7337,7084.1,-21075
3.733,7092.4,-21077
3.733,7094.3,-21078
3.733,7092.1,-21077
3.733,7098.2,-21077
3.733,7109.6,-21075
3.733,7109.8,-21070
3.733,7117.1,-21068
3.733,7118.2,-21064
3.733,7118.1,-21065
3.733,7118.1,-21062
3.733,7120.2,-21066
3.733,7119.6,-21071
3.733,7121.4,-21066
3.733,7129.4,-21063
3.733,7133.2,-21063
3.7327,7135.8,-21060
3.732,7141.8,-21062
3.7323,7143.9,-21069
3.733,7141.4,-21074
3.733,7141.2,-21074
3.733,7148.8,-21080
3.7327,7150.7,-21083
3.732,7153.3,-21085
3.732,7159.7,-21078
3.732,7155.6,-21078
3.732,7160.7,-21076
3.732,7159.9,-21074
3.732,7159.1,-21070
3.732,7166,-21071
3.732,7167.3,-21068
3.732,7171.5,-21070
3.732,7178.4,-21068
3.732,7186.3,-21064
3.732,7190,-21071
3.732,7194.7,-21069
3.732,7197.7,-21067
3.732,7194.6,-21069
3.7318,7198.7,-21070
3.7312,7201.1,-21077
3.7318,7205.5,-21081
3.7312,7204.8,-21082
3.732,7210,-21084
3.7318,7213.5,-21083
3.731,7221.7,-21075
3.731,7224.9,-21062
3.731,7229.1,-21063
3.731,7236.6,-21065
3.731,7242,-21070
3.731,7250.6,-21073
3.731,7248,-21077
3.731,7256.7,-21080
3.731,7258.1,-21081
3.731,7265.4,-21090
3.731,7265,-21088
3.731,7272.5,-21081
3.731,7277.7,-21074
3.731,7288.7,-21077
3.7308,7291.1,-21072
3.7302,7292.8,-21069
3.7308,7299,-21074
3.73,7300.9,-21075
3.73,7304.7,-21070
3.73,7316.5,-21072
3.73,7321.8,-21081
3.73,7328.8,-21084
3.73,7334.8,-21081
3.73,7344.2,-21079
3.73,7347.3,-21072
3.73,7344.3,-21072
3.73,7357.8,-21073
3.73,7360.5,-21074
3.73,7371,-21070
3.73,7375.3,-21073
3.73,7379.3,-21069
3.7298,7392.7,-21063
3.7292,7401.9,-21058
3.7298,7407.1,-21061
3.729,7402.5,-21065
3.7292,7410.1,-21066
3.73,7412.9,-21071
3.7298,7416.1,-21071
3.729,7421.9,-21069
3.729,7425.5,-21075
3.729,7435.8,-21081
3.729,7444.6,-21073
3.729,7445.9,-21073
3.729,7453.1,-21069
3.729,7458.8,-21068
3.729,7462.3,-21064
3.729,7463.4,-21065
3.729,7467.3,-21069
3.7288,7470.3,-21070
3.7282,7470.8,-21076
3.7288,7480.8,-21076
3.7282,7487.3,-21073
3.7288,7487.3,-21073
3.728,7496.7,-21065
3.728,7493.2,-21063
3.728,7495.4,-21065
3.728,7497.7,-21068
3.728,7492.4,-21067
3.728,7490,-21076
3.728,7484.1,-21088
3.728,7484,-21089
3.7278,7477.1,-21082
3.7272,7470.4,-21082
3.728,7461.6,-21073
3.728,7449.4,-21072
3.728,7429.2,-21064
3.728,7418.8,-21063
3.728,7402,-21066
3.728,7381.3,-21063
3.728,7365.7,-21071
3.7278,7351.1,-21074
3.727,7338.6,-21072
3.7272,7315.6,-21069
3.7278,7304.2,-21071
3.727,7287.8,-21070
3.727,7270,-21070
3.727,7249.1,-21067
3.727,7228.6,-21071
3.727,7213.2,-21070
3.727,7201.6,-21074
3.727,7194.7,-21077
3.7268,7180.9,-21080
3.726,7178.9,-21075
3.726,7165.6,-21077
3.7262,7154.7,-21082
3.727,7149.9,-21078
3.7268,7132.2,-21073
3.726,7127.6,-21079
3.726,7114.6,-21076
3.726,7107.1,-21072
3.726,7104.6,-21073
3.726,7100,-21084
3.726,7099.1,-21081
3.726,7092.5,-21078
3.726,7096.3,-21077
3.726,7091.5,-21076
3.726,7087.1,-21071
3.726,7083.2,-21071
3.726,7079.1,-21069
3.726,7077.2,-21082
3.726,7074.1,-21082
3.7258,7075.6,-21093
3.725,7072.8,-21096
3.725,7075.7,-21091
3.725,7081.3,-21087
3.725,7081.3,-21078
3.725,7079,-21068
3.725,7080.3,-21067
3.725,7078.1,-21071
3.725,7084.3,-21065
3.725,7080.8,-21069
3.725,7080.9,-21071
3.725,7078.9,-21074
3.725,7084.8,-21072
3.7248,7088.8,-21070
3.7242,7086,-21068
3.725,7088,-21070
3.725,7082.4,-21070
3.725,7081.7,-21070
3.7248,7083.6,-21072
3.724,7082.8,-21081
3.724,7082.4,-21079
3.724,7087.4,-21093
3.724,7088.1,-21088
3.724,7093.9,-21080
3.724,7096.6,-21075
3.724,7094.3,-21071
3.724,7093.9,-21069
3.724,7099,-21068
3.724,7102.9,-21076
3.724,7090.6,-21076
3.724,7083.6,-21075
3.724,7089.9,-21080
3.7238,7087.1,-21079
3.723,7092.4,-21081
3.7232,7097.2,-21077
3.7238,7099.1,-21078
3.723,7099.1,-21075
3.723,7089.4,-21079
3.723,7087.3,-21080
3.723,7090.2,-21079
3.723,7092.4,-21081
3.723,7085.6,-21075
3.7229,7093.7,-21076
3.7222,7092.5,-21072
3.723,7097,-21073
3.7229,7101.9,-21079
3.7222,7094.9,-21087
3.723,7094.5,-21093
3.7229,7093.9,-21094
3.722,7087.4,-21087
3.722,7086.8,-21081
3.722,7090.5,-21081
3.722,7091.1,-21071
3.722,7093.6,-21072
3.722,7095.7,-21071
3.722,7106.9,-21075
3.722,7105.1,-21071
3.722,7099.5,-21070
3.722,7096.6,-21068
3.7219,7087.2,-21068
3.7211,7089.5,-21079
3.722,7083.5,-21076
3.7219,7084,-21075
3.721,7089.2,-21076
3.721,7082,-21075
3.721,7085.3,-21083
3.721,7083.4,-21077
3.721,7084.1,-21074
3.721,7081.1,-21075
3.721,7077.8,-21076
3.721,7072.6,-21078
3.721,7071.7,-21073
3.7209,7077.4,-21072
3.7201,7075.8,-21074
3.7209,7076.4,-21080
3.7201,7082.6,-21067
3.7209,7083.5,-21065
3.7201,7074.6,-21070
3.721,7076.2,-21066
3.721,7072.6,-21072
3.721,7060,-21081
3.7209,7061.5,-21084
3.72,7061.7,-21084
3.72,7061.4,-21083
3.72,7066.7,-21078
3.7199,7060.5,-21074
3.7191,7067.2,-21070
3.72,7066.9,-21076
3.72,7056.8,-21081
3.7199,7055.4,-21078
3.7191,7054.2,-21081
3.7199,7053.6,-21078
3.719,7050,-21076
3.719,7047.7,-21076
3.719,7055.3,-21066
3.719,7063.5,-21063
3.719,7063.4,-21067
3.719,7063.3,-21072
3.719,7063.7,-21073
3.719,7066.9,-21077
3.7189,7053.6,-21075
3.7181,7050.5,-21079
3.719,7053.7,-21086
3.719,7053.2,-21088
3.7189,7054.5,-21088
3.718,7059.1,-21079
3.7181,7065.1,-21077
3.7189,7063.3,-21064
3.718,7060,-21064
3.718,7060,-21066
3.718,7058.6,-21069
3.718,7053.8,-21074
3.718,7054.4,-21078
3.718,7057.8,-21077
3.718,7052.6,-21072
3.7179,7059.4,-21070
3.7171,7057.1,-21069
3.718,7053.2,-21063
3.718,7056.7,-21072
3.7179,7061.6,-21078
3.7171,7056.4,-21077
3.7179,7052.5,-21083
3.717,7061.4,-21083
3.717,7065.1,-21088
3.717,7061.4,-21081
3.717,7063.9,-21079
3.717,7067.4,-21073
3.717,7061.1,-21069
3.717,7057.7,-21067
3.717,7055.4,-21067
3.717,7055.4,-21077
3.717,7050.3,-21084
3.717,7053.7,-21089
3.7169,7053.1,-21093
3.716,7053.1,-21089
3.716,7058.5,-21088
3.716,7064.8,-21081
3.716,7066.9,-21072
3.716,7061.6,-21071
3.716,7061.1,-21068
3.716,7054.1,-21066
3.716,7047.4,-21067
3.7159,7045,-21074
3.7151,7051.2,-21080
3.716,7056.1,-21084
3.7159,7059.1,-21077
3.715,7074.1,-21083
3.715,7076.5,-21093
3.715,7079.4,-21087
3.715,7079.4,-21091
3.715,7088,-21092
3.715,7098.9,-21084
3.715,7095.5,-21071
3.715,7097.7,-21075
3.715,7124.5,-21072
3.715,7149,-21071
3.7149,7169.5,-21070
3.714,7171.7,-21073
3.714,7173.2,-21066
3.7141,7174.2,-21064
3.7149,7162.6,-21072
3.714,7163.8,-21079
3.714,7166.2,-21083
3.714,7181.4,-21085
3.714,7195.4,-21084
3.714,7213.8,-21083
3.714,7227.3,-21084
3.714,7247.9,-21082
3.714,7257.8,-21081
3.7139,7284.4,-21070
3.7131,7304.6,-21070
3.714,7311.5,-21072
3.7139,7291,-21079
3.713,7288.1,-21080
3.713,7287,-21080
3.713,7291.8,-21079
3.713,7282.2,-21083
3.713,7278.1,-21073
3.713,7254.4,-21070
3.713,7207.9,-21067
3.713,7166.9,-21064
3.713,7141.7,-21078
3.713,7126.4,-21071
3.713,7109.1,-21079
3.713,7088.9,-21084
3.7129,7085.5,-21080
3.7121,7083,-21084
3.7129,7081.4,-21082
3.712,7065.2,-21079
3.712,7062,-21079
3.712,7057.5,-21072
3.712,7048.9,-21071
3.712,7042.9,-21079
3.712,7032,-21083
3.712,7039.9,-21085
3.712,7035.3,-21086
3.712,7033.7,-21091
3.7119,7032.8,-21090
3.7111,7037.1,-21083
3.712,7032.2,-21080
3.712,7025.7,-21079
3.712,7021.4,-21081
3.712,7021.1,-21087
3.7119,7019.2,-21090
3.711,7020.7,-21091
3.711,7018.6,-21093
3.711,7020.8,-21098
3.711,7011.9,-21097
3.711,7014,-21093
3.71,7021.4,-21084
3.711,7012.9,-21087
3.711,7017.8,-21090
3.711,7014.5,-21085
3.711,7009.9,-21085
3.71,7012.9,-21082
3.71,7010.8,-21087
3.71,7012.5,-21077
3.71,7017.4,-21077
3.71,7012.9,-21080
3.71,7020.7,-21079
3.71,7015.8,-21077
3.71,7014.2,-21083
3.71,7019,-21085
3.71,7017.7,-21092
3.71,7020.3,-21090
3.71,7015.1,-21094
3.709,7020.1,-21083
3.71,7028,-21080
3.709,7031.3,-21082
3.709,7029.9,-21086
3.709,7029.3,-21094
3.709,7024.6,-21102
3.709,7030.4,-21097
3.709,7018.3,-21094
3.709,7003.5,-21105
3.709,6999.4,-21100
3.709,6979.3,-21108
3.709,7003.5,-21102
3.709,7056.3,-21093
3.709,7119.1,-21084
3.709,7203,-21086
3.708,7297.9,-21091
3.709,7489.8,-21093
3.709,7626.9,-21092
3.708,7786.1,-21090
3.708,7936.2,-21091
3.708,8172.2,-21086
3.708,8358.6,-21074
3.708,8527.4,-21070
3.708,8614.9,-21065
3.708,8575,-21034
3.708,8303.6,-21003
3.708,7867.3,-20982
3.708,7452.2,-20986
3.708,7043.4,-20979
3.708,6808.6,-20982
3.707,6669.3,-20995
3.707,6517.9,-21016
3.707,6448.7,-21032
3.707,6382.7,-21044
3.707,6393.5,-21045
3.707,6445.6,-21060
3.707,6533.9,-21070
3.707,6648.2,-21086
3.707,6756.2,-21081
3.707,6849.3,-21082
3.707,6946.9,-21092
3.706,7015.3,-21086
3.706,7071.7,-21083
3.706,7113.6,-21092
3.706,7120.9,-21091
3.706,7123.3,-21083
3.707,7120.6,-21084
3.706,7122.9,-21083
3.706,7116.3,-21085
3.706,7116.4,-21086
3.706,7117.8,-21087
3.706,7115.7,-21086
3.706,7113.3,-21077
3.706,7121.2,-21072
3.706,7134.6,-21071
3.706,7132.4,-21078
3.706,7133.4,-21085
3.705,7138.7,-21073
3.706,7140.8,-21074
3.706,7137.4,-21072
3.705,7145.3,-21084
3.705,7142.1,-21085
3.705,7148.4,-21082
3.705,7154.2,-21083
3.705,7161.7,-21088
3.705,7160.3,-21090
3.705,7165.7,-21091
3.705,7160.3,-21088
3.704,7165.9,-21082
3.705,7165.1,-21082
3.704,7170.4,-21086
3.705,7165.7,-21088
3.704,7172.6,-21086
3.704,7184.4,-21087
3.704,7192.6,-21085
3.704,7193,-21092
3.704,7199.5,-21089
3.704,7200.6,-21084
3.704,7196.5,-21093
3.704,7195.8,-21093
3.704,7196.9,-21095
3.704,7203.2,-21089
3.704,7204.2,-21086
3.703,7208.7,-21078
3.704,7220.1,-21073
3.704,7220,-21077
3.703,7219.2,-21078
3.703,7219,-21079
3.704,7219.6,-21085
3.703,7220.9,-21084
3.703,7218.5,-21085
3.703,7220.6,-21091
3.703,7229.9,-21097
3.703,7231.1,-21091
3.703,7237.5,-21083
3.703,7245.7,-21081
3.703,7255.9,-21089
3.703,7255.4,-21088
3.703,7253.4,-21087
3.703,7264.6,-21088
3.702,7269,-21093
3.703,7267.4,-21102
3.703,7272,-21095
3.702,7282,-21088
3.702,7288.4,-21083
3.702,7293.7,-21073
3.702,7296.5,-21071
3.702,7294.9,-21066
3.702,7302.1,-21065
3.702,7300.9,-21072
3.701,7302.7,-21079
3.702,7304.6,-21078
3.702,7309.7,-21087
3.701,7317.8,-21083
3.701,7322,-21079
3.701,7328.6,-21073
3.701,7335.1,-21072
3.701,7335.4,-21077
3.701,7345.8,-21079
3.701,7346.9,-21077
3.701,7352.4,-21073
3.701,7356.6,-21078
3.701,7359.8,-21086
3.701,7366.4,-21092
3.701,7372.2,-21087
3.701,7381.9,-21081
3.701,7389.5,-21083
3.701,7388,-21079
3.701,7396.5,-21079
3.701,7403.7,-21087
3.701,7407.4,-21089
3.701,7414.3,-21094
3.7,7416.2,-21098
3.7,7428.2,-21091
3.7,7435,-21082
3.7,7449.8,-21071
3.7,7451.9,-21068
3.7,7452.5,-21071
3.7,7464.7,-21075
3.7,7463.4,-21074
3.7,7465.1,-21085
3.7,7471.5,-21082
3.7,7479.5,-21088
3.7,7484.9,-21088
3.6991,7491,-21084
3.699,7505.4,-21084
3.699,7509.9,-21086
3.699,7510.3,-21086
3.699,7511,-21090
3.699,7512.7,-21078
3.699,7517.6,-21085
3.699,7516.7,-21085
3.699,7515.4,-21085
3.699,7524.2,-21089
3.699,7527.5,-21080
3.699,7525.2,-21083
3.699,7539.4,-21077
3.699,7538.6,-21084
3.699,7538.9,-21080
3.699,7544.1,-21081
3.698,7537.4,-21071
3.698,7536,-21078
3.699,7533.1,-21073
3.698,7529.5,-21073
3.698,7527.2,-21090
3.698,7529.9,-21084
3.698,7514.5,-21085
3.698,7512.3,-21082
3.698,7507.2,-21085
3.698,7488.5,-21075
3.698,7473.8,-21080
3.698,7454,-21075
3.698,7442.5,-21072
3.697,7419.5,-21076
3.697,7400.2,-21084
3.697,7389.8,-21079
3.697,7369.3,-21084
3.697,7356.7,-21078
3.698,7333.3,-21075
3.697,7315.7,-21077
3.697,7297.5,-21079
3.697,7277.6,-21080
3.697,7260.9,-21085
3.697,7253.9,-21081
3.697,7234.4,-21088
3.697,7219.6,-21079
3.697,7213.7,-21084
3.6961,7204,-21086
3.6969,7198.1,-21082
3.697,7180.9,-21092
3.6961,7172.7,-21096
3.6969,7166.3,-21101
3.6961,7155.4,-21091
3.6969,7148.8,-21094
3.6961,7141.4,-21098
3.696,7140.9,-21086
3.696,7134.5,-21079
3.696,7135.1,-21065
3.696,7134.5,-21063
3.696,7127.7,-21065
3.696,7123.5,-21075
3.696,7120.9,-21076
3.696,7114.2,-21079
3.696,7109.2,-21079
3.696,7112.8,-21081
3.696,7116.8,-21087
3.696,7118.9,-21090
3.6951,7118.8,-21086
3.695,7122,-21082
3.6959,7121.8,-21081
3.696,7127.7,-21072
3.6951,7123.8,-21082
3.695,7114.9,-21084
3.695,7113.1,-21086
3.695,7115.9,-21089
3.695,7116,-21086
3.695,7120.1,-21084
3.695,7134.3,-21081
3.695,7128,-21083
3.695,7129.2,-21091
3.695,7132.6,-21089
3.695,7125.9,-21094
3.695,7121.9,-21092
3.695,7124.5,-21090
3.695,7125.4,-21091
3.6941,7127.7,-21087
3.694,7123.2,-21079
3.6949,7128,-21072
3.695,7136.1,-21074
3.6941,7132.4,-21073
3.694,7124,-21077
3.694,7129.3,-21080
3.694,7131.4,-21084
3.694,7131.7,-21091
3.694,7124.3,-21098
3.694,7130.6,-21099
3.694,7133.6,-21095
3.694,7134.8,-21087
3.694,7134.4,-21077
3.6931,7136.3,-21068
3.6939,7128.7,-21067
3.6931,7127.2,-21072
3.6939,7134.4,-21078
3.694,7127.3,-21090
3.6931,7129.7,-21094
3.693,7124.9,-21105
3.693,7124.3,-21100
3.693,7122.8,-21094
3.693,7132.7,-21083
3.693,7136.1,-21078
3.693,7135.9,-21078
3.693,7127.8,-21070
3.693,7139.2,-21072
3.693,7133.9,-21080
3.693,7135.9,-21086
3.693,7128.3,-21080
3.693,7127.9,-21084
3.693,7126.8,-21089
3.693,7133.2,-21088
3.693,7136.1,-21081
3.693,7129.9,-21080
3.6921,7133.3,-21079
3.692,7125.5,-21081
3.692,7122.8,-21072
3.692,7113.3,-21091
3.692,7114.9,-21101
3.692,7113.4,-21105
3.692,7117.2,-21101
3.692,7113.5,-21099
3.692,7115.3,-21087
3.692,7118.5,-21072
3.692,7113.5,-21073
3.692,7105.6,-21076
3.692,7105,-21070
3.692,7100.4,-21070
3.692,7102.8,-21074
3.692,7102.4,-21080
3.692,7106.1,-21084
3.6911,7103.2,-21081
3.691,7113.2,-21082
3.6919,7103.3,-21080
3.6911,7103.3,-21089
3.691,7101.9,-21095
3.691,7098.5,-21098
3.6919,7094.2,-21100
3.6911,7093.6,-21097
3.691,7093.7,-21098
3.691,7098.7,-21076
3.691,7091.8,-21077
3.691,7095.5,-21074
3.691,7089.9,-21071
3.691,7092.8,-21068
3.691,7090.1,-21070
3.691,7088.1,-21070
3.6901,7078.9,-21083
3.69,7085.3,-21091
3.6909,7077.8,-21097
3.6901,7081.1,-21090
3.69,7075.6,-21085
3.6909,7082.3,-21076
3.6901,7079.3,-21073
3.69,7084.9,-21075
3.6909,7089.7,-21077
3.6901,7081.6,-21086
3.69,7075.6,-21088
3.69,7068.2,-21090
3.69,7064.9,-21100
3.69,7070.2,-21098
3.69,7078.7,-21093
3.69,7079.5,-21090
3.6891,7075.4,-21090
3.6899,7070.7,-21088
3.69,7072.6,-21087
3.69,7069.7,-21086
3.69,7063.4,-21088
3.6891,7064,-21089
3.689,7064.5,-21097
3.689,7064.1,-21097
3.689,7065.2,-21087
3.689,7062.1,-21085
3.689,7070.3,-21093
3.689,7069.2,-21089
3.689,7064.9,-21080
3.689,7066.2,-21085
3.689,7067.3,-21086
3.689,7068.5,-21089
3.689,7066.1,-21087
3.6881,7059.6,-21094
3.6889,7066.9,-21086
3.689,7066.5,-21081
3.689,7066,-21074
3.689,7061.8,-21080
3.689,7057.3,-21080
3.6881,7056.4,-21084
3.688,7055.9,-21083
3.688,7049.2,-21085
3.688,7052.8,-21086
3.688,7055.7,-21090
3.688,7056.3,-21099
3.688,7055.7,-21093
3.688,7060,-21097
3.688,7056.3,-21091
3.688,7053.1,-21082
3.688,7044.9,-21074
3.688,7051.9,-21064
3.688,7047.4,-21073
3.688,7046.6,-21081
3.688,7047.8,-21112
3.688,7064.2,-21117
3.688,7073.3,-21117
3.6871,7074.9,-21109
3.6879,7068.8,-21094
3.688,7075.9,-21087
3.688,7077.8,-21062
3.6871,7089.9,-21059
3.687,7098,-21072
3.687,7088.3,-21073
3.687,7115.4,-21072
3.687,7139.2,-21073
3.687,7147.7,-21074
3.687,7151,-21086
3.687,7165,-21087
3.687,7166.1,-21081
3.687,7146.7,-21072
3.687,7156.3,-21081
3.687,7159.4,-21073
3.6861,7166,-21080
3.686,7185.6,-21081
3.6869,7207.8,-21089
3.687,7217.3,-21093
3.6861,7223.3,-21085
3.6869,7250.9,-21078
3.687,7281,-21066
3.6861,7294.6,-21069
3.686,7290,-21057
3.686,7275,-21070
3.686,7273.1,-21068
3.686,7279.4,-21071
3.686,7276.7,-21080
3.686,7277.9,-21080
3.686,7261.4,-21075
3.686,7234.6,-21072
3.686,7189.8,-21065
3.686,7144,-21059
3.686,7119.4,-21068
3.686,7109.9,-21077
3.686,7098.4,-21078
3.686,7078.1,-21088
3.686,7068.4,-21092
3.686,7070.6,-21096
3.6851,7059.8,-21090
3.685,7054.6,-21083
3.685,7048.6,-21078
3.685,7042.3,-21081
3.685,7033.1,-21086
3.685,7020.3,-21092
3.685,7025.9,-21092
3.685,7017.3,-21103
3.685,7015.8,-21097
3.685,7013.6,-21095
3.685,7002.9,-21078
3.685,7009.3,-21080
3.685,7010.8,-21090
3.685,7008.2,-21089
3.685,7007.6,-21078
3.685,7006.8,-21081
3.685,7004.5,-21080
3.685,6992.2,-21075
3.685,7001.6,-21079
3.685,6998.9,-21082
3.685,6998.4,-21080
3.6841,7004.6,-21081
3.6849,7004.4,-21078
3.6841,7000.7,-21086
3.684,7003.8,-21090
3.6849,6996.7,-21094
3.6841,6989,-21097
3.6849,6993.3,-21099
3.6841,6987.2,-21090
3.684,6999,-21093
3.684,7000.8,-21083
3.684,6996,-21079
3.684,7000.3,-21076
3.684,7001.5,-21073
3.684,7000.7,-21078
3.6831,6997.9,-21082
3.6839,6994.4,-21079
3.684,6994.3,-21087
3.684,7003.3,-21093
3.684,7000.5,-21091
3.684,7003.7,-21094
3.684,7009.5,-21091
3.684,7016.9,-21089
3.684,7011.3,-21086
3.684,7008.8,-21084
3.684,7011.7,-21087
3.684,6994.4,-21094
3.6831,6980.4,-21102
3.683,6963.1,-21105
3.6839,6960.5,-21119
3.6831,6998,-21121
3.6839,7051.7,-21123
3.6831,7112.3,-21117
3.683,7200.1,-21102
3.683,7327.6,-21095
3.683,7496,-21091
3.683,7656.9,-21074
3.6839,7781.5,-21074
3.6831,7969.4,-21085
3.683,8191.9,-21075
3.683,8370.6,-21058
3.683,8504.8,-21060
3.683,8571.6,-21046
3.683,8528.6,-21016
3.683,8149.9,-21003
3.683,7714.1,-20996
3.683,7269.3,-21010
3.683,6916.4,-20998
3.683,6717.8,-20998
3.683,6586.3,-21004
3.683,6456,-21023
3.683,6390.6,-21041
3.683,6351.6,-21048
3.683,6357.4,-21047
3.6821,6406.7,-21047
3.682,6488.3,-21056
3.682,6575.5,-21073
3.6829,6675.5,-21074
3.683,6769.8,-21079
3.6821,6853.2,-21086
3.682,6927.2,-21092
3.682,6987.9,-21091
3.682,7032.8,-21089
3.682,7065.5,-21084
3.682,7088.4,-21080
3.682,7078.4,-21079
3.682,7079.1,-21080
3.682,7077.1,-21083
3.682,7086.7,-21106
3.682,7081.8,-21112
3.682,7076.2,-21118
3.682,7083.7,-21106
3.6811,7091,-21091
3.6819,7099.2,-21083
3.682,7099.6,-21071
3.682,7101.3,-21074
3.682,7092,-21090
3.682,7098,-21100
3.6811,7099.8,-21096
3.681,7105.7,-21094
3.681,7099.4,-21088
3.6819,7108.3,-21079
3.6811,7106.9,-21071
3.681,7123.5,-21063
3.681,7116.9,-21076
3.681,7120.6,-21084
3.681,7126.3,-21090
3.681,7125,-21092
3.681,7127.7,-21092
3.681,7129.9,-21090
3.681,7125.9,-21094
3.681,7139.3,-21090
3.681,7138.9,-21091
3.681,7148.2,-21096
3.681,7153.4,-21087
3.681,7155,-21087
3.681,7152,-21085
3.681,7154.4,-21072
3.681,7157.6,-21072
3.681,7151,-21075
3.681,7152.5,-21077
3.681,7162.4,-21077
3.681,7158.6,-21080
3.681,7163.7,-21085
3.6801,7171.7,-21076
3.68,7180.9,-21074
3.68,7176.7,-21074
3.68,7178.5,-21087
3.6809,7186.9,-21083
3.6801,7178.9,-21092
3.68,7180.2,-21090
3.68,7181.5,-21097
3.68,7177.5,-21098
3.68,7187.1,-21092
3.68,7190.5,-21078
3.68,7202.7,-21079
3.68,7204.1,-21076
3.68,7207.5,-21078
3.68,7212.7,-21082
3.68,7208.7,-21085
3.68,7212.7,-21085
3.68,7224.8,-21091
3.68,7217.8,-21099
3.6791,7225.9,-21110
3.6799,7238.7,-21111
3.68,7235,-21104
3.6791,7237.1,-21087
3.679,7239.8,-21083
3.679,7241.3,-21081
3.6799,7236.6,-21074
3.68,7240,-21088
3.6791,7251.7,-21091
3.679,7260.6,-21084
3.679,7265,-21088
3.679,7276.8,-21080
3.679,7280.1,-21095
3.679,7290.2,-21094
3.679,7285.4,-21097
3.679,7290.9,-21097
3.679,7291.9,-21100
3.679,7297.4,-21097
3.679,7303.1,-21101
3.679,7305.7,-21084
3.679,7312.9,-21090
3.679,7309.5,-21082
3.679,7322.9,-21068
3.679,7327,-21056
3.679,7328.5,-21068
3.679,7340.2,-21074
3.679,7349.2,-21088
3.679,7348.6,-21090
3.679,7353.1,-21095
3.679,7359.5,-21085
3.6781,7372.1,-21084
3.678,7373.6,-21073
3.678,7382.9,-21077
3.678,7396.1,-21070
3.6789,7400.6,-21068
3.6781,7411.2,-21075
3.678,7413.5,-21083
3.678,7411.4,-21084
3.678,7413.1,-21086
3.678,7416.2,-21079
3.678,7427.3,-21082
3.678,7431,-21083
3.678,7442.2,-21084
3.678,7448.8,-21082
3.678,7455.2,-21081
3.678,7457.6,-21079
3.678,7463.8,-21084
3.678,7467.3,-21084
3.678,7461.8,-21083
3.678,7461.1,-21092
3.6771,7468.2,-21103
3.6779,7475.9,-21092
3.6771,7475.6,-21095
3.677,7487.6,-21094
3.677,7481,-21096
3.6779,7480,-21089
3.678,7487.3,-21082
3.6771,7480.7,-21083
3.677,7467.2,-21085
3.677,7464.3,-21085
3.677,7465.8,-21086
3.677,7454.2,-21081
3.677,7452,-21074
3.677,7452.4,-21081
3.677,7440.1,-21092
3.677,7421.3,-21093
3.677,7410.6,-21098
3.677,7384,-21102
3.677,7368.9,-21102
3.677,7341.4,-21089
3.677,7330.4,-21081
3.677,7304.8,-21069
3.6761,7286.5,-21050
3.676,7277,-21058
3.676,7266.5,-21058
3.6769,7246.8,-21069
3.6761,7230.7,-21076
3.6769,7218.1,-21075
3.6761,7204,-21073
3.6769,7182.3,-21075
3.6761,7168.3,-21089
3.676,7157.7,-21092
3.676,7149.3,-21094
3.676,7136.4,-21087
3.676,7132.8,-21078
3.676,7120.4,-21065
3.676,7102.3,-21063
3.676,7101.2,-21069
3.676,7096.7,-21075
3.676,7094,-21084
3.676,7082.2,-21080
3.676,7079.3,-21082
3.676,7077.6,-21085
3.676,7079.8,-21078
3.676,7077.9,-21068
3.676,7072.2,-21073
3.6751,7075.4,-21083
3.675,7068.9,-21084
3.6759,7067,-21091
3.6751,7068.7,-21091
3.675,7061.3,-21092
3.675,7061,-21089
3.675,7064.9,-21085
3.675,7065.4,-21072
3.675,7067.6,-21070
3.675,7068.9,-21069
3.675,7062.5,-21084
3.675,7067,-21092
3.675,7066.8,-21094
3.675,7063.5,-21106
3.675,7066.3,-21113
3.675,7067.6,-21096
3.675,7081.2,-21084
3.675,7075,-21076
3.6742,7078.4,-21074
3.6749,7085.9,-21057
3.675,7078.3,-21061
3.6742,7073.4,-21074
3.674,7082.9,-21081
3.6749,7080.1,-21080
3.675,7072.5,-21081
3.6742,7074.7,-21078
3.674,7077.8,-21079
3.674,7078.9,-21080
3.674,7076.9,-21076
3.674,7080.4,-21076
3.674,7081.8,-21072
3.674,7083.4,-21064
3.674,7085.3,-21065
3.674,7079.9,-21074
3.674,7078.6,-21075
3.674,7076.7,-21074
3.674,7077.9,-21075
3.674,7081.3,-21078
3.6732,7085.9,-21074
3.673,7092.4,-21075
3.6738,7090.1,-21076
3.6732,7089.6,-21073
3.673,7094,-21083
3.673,7093.7,-21087
3.673,7087.7,-21088
3.673,7089.2,-21082
3.673,7096.7,-21084
3.673,7093.2,-21082
3.673,7095.6,-21078
3.673,7098.1,-21079
3.673,7104.1,-21085
3.673,7095.9,-21100
3.6722,7097.2,-21107
3.6728,7095.3,-21099
3.673,7093.6,-21092
3.673,7094.9,-21084
3.6722,7097.9,-21074
3.6728,7096.6,-21077
3.673,7101.5,-21082
3.673,7109.1,-21087
3.673,7104.6,-21092
3.6722,7097.1,-21078
3.672,7093.2,-21064
3.672,7092.9,-21067
3.672,7086.2,-21070
3.672,7077.2,-21066
3.672,7080.6,-21065
3.672,7082.2,-21069
3.672,7080.4,-21070
3.672,7086.2,-21071
3.672,7086.7,-21075
3.672,7080.3,-21086
3.672,7073.1,-21081
3.672,7078.9,-21076
3.6712,7070.1,-21083
3.6718,7071.3,-21079
3.672,7071.9,-21078
3.672,7072.4,-21083
3.6712,7067,-21092
3.6718,7068.8,-21089
3.6712,7067.1,-21086
3.671,7063.7,-21085
3.6718,7064.3,-21082
3.6712,7054.3,-21086
3.6718,7055.7,-21086
3.6712,7050.8,-21076
3.671,7050.3,-21074
3.671,7051,-21072
3.671,7056.3,-21069
3.671,7048.5,-21075
3.671,7048.4,-21075
3.671,7057.9,-21076
3.671,7049.3,-21075
3.671,7043.3,-21075
3.671,7046.8,-21075
3.671,7044.4,-21072
3.671,7039.5,-21073
3.6702,7040.8,-21077
3.67,7040.5,-21082
3.6708,7043.1,-21084
3.671,7045,-21084
3.6702,7048.1,-21085
3.67,7043.5,-21076
3.67,7041.8,-21067
3.67,7038.2,-21066
3.67,7035.3,-21063
3.67,7036.7,-21068
3.67,7036.6,-21086
3.67,7038,-21087
3.67,7041.1,-21095
3.67,7047.6,-21096
3.67,7049,-21087
3.67,7049.2,-21080
3.6692,7041.6,-21074
3.6698,7042.3,-21068
3.67,7043.1,-21072
3.6692,7045.5,-21081
3.669,7036.3,-21092
3.669,7035.5,-21096
3.669,7037.5,-21087
3.669,7042.6,-21073
3.669,7040.3,-21070
3.669,7040,-21067
3.669,7040.9,-21066
3.669,7047.3,-21066
3.669,7043.2,-21071
3.669,7039,-21074
3.669,7044.4,-21084
3.669,7046.8,-21084
3.669,7042.9,-21086
3.669,7048.6,-21084
3.669,7055.1,-21088
3.6682,7058.4,-21079
3.6688,7052.8,-21094
3.6682,7059.3,-21102
3.6688,7061.7,-21100
3.6682,7066.5,-21100
3.668,7079,-21104
3.668,7080.9,-21094
3.668,7087.9,-21074
3.668,7100.8,-21067
3.668,7136.1,-21065
3.668,7146.3,-21059
3.668,7145.2,-21063
3.668,7155.9,-21068
3.668,7157.9,-21069
3.668,7140.3,-21074
3.668,7143.8,-21080
3.668,7154.6,-21094
3.668,7160.2,-21099
3.668,7183.3,-21102
3.6672,7206.8,-21097
3.6678,7218.9,-21100
3.668,7226.6,-21095
3.668,7240.5,-21088
3.6672,7269.1,-21080
3.667,7294.6,-21074
3.6678,7298.2,-21062
3.6672,7281.9,-21066
3.667,7282.3,-21068
3.667,7281.8,-21069
3.667,7286.6,-21070
3.667,7286.1,-21067
3.667,7265.9,-21070
3.667,7247.4,-21070
3.667,7206.5,-21074
3.667,7151.5,-21077
3.667,7128,-21075
3.6662,7112.7,-21074
3.666,7104.6,-21077
3.6668,7084.4,-21069
3.6662,7078.2,-21070
3.666,7081.8,-21070
3.666,7079.1,-21065
3.6668,7070.5,-21072
3.667,7057.5,-21075
3.6662,7056,-21072
3.666,7040,-21081
3.666,7028.6,-21082
3.666,7028.1,-21093
3.666,7032.4,-21105
3.666,7025.7,-21108
3.666,7029.5,-21103
3.666,7029.6,-21097
3.666,7028.3,-21090
3.666,7027.7,-21075
3.666,7030.5,-21072
3.666,7026,-21081
3.666,7025.9,-21083
3.666,7023.3,-21085
3.6652,7024.5,-21082
3.665,7021.7,-21090
3.665,7027.9,-21097
3.665,7031.6,-21091
3.665,7026,-21097
3.665,7031.5,-21107
3.665,7028.8,-21125
3.665,7023.1,-21112
3.665,7025.3,-21100
3.665,7022.7,-21090
3.665,7020.9,-21073
3.665,7022.2,-21068
3.665,7021.9,-21047
3.665,7025.5,-21051
3.665,7018.1,-21057
3.665,7021.7,-21065
3.665,7023.4,-21078
3.665,7021.1,-21086
3.665,7026.5,-21086
3.6642,7026.9,-21092
3.664,7028.1,-21091
3.664,7033,-21082
3.664,7043.3,-21078
3.664,7042.4,-21077
3.664,7041,-21077
3.664,7039.4,-21081
3.664,7036.3,-21081
3.664,7039.5,-21080
3.664,7035.7,-21083
3.664,7026,-21088
3.664,7013,-21085
3.664,6992.1,-21092
3.664,6986.6,-21100
3.6632,7012.8,-21104
3.6638,7052.3,-21110
3.664,7105.6,-21115
3.6632,7190.4,-21122
3.6638,7308.6,-21125
3.6632,7473.3,-21116
3.663,7641.8,-21116
3.663,7789.6,-21091
3.663,7937.9,-21090
3.663,8181,-21071
3.663,8385.5,-21062
3.663,8529.8,-21068
3.6638,8628.4,-21061
3.6632,8645.1,-21061
3.663,8399,-21052
3.663,7962.7,-21037
3.663,7520.8,-21014
3.663,7099.1,-20996
3.663,6815,-20982
3.663,6679,-20965
3.663,6547.2,-20981
3.663,6468.3,-21005
3.6622,6411.5,-21014
3.6628,6393.1,-21015
3.663,6426.9,-21027
3.6622,6494.7,-21043
3.662,6563.9,-21060
3.662,6658.9,-21073
3.662,6770.4,-21079
3.662,6853.7,-21079
3.662,6935.3,-21077
3.662,7009.2,-21077
3.662,7056.4,-21078
3.662,7094.8,-21089
3.662,7118.3,-21098
3.662,7128,-21098
3.662,7129.5,-21090
3.662,7127.3,-21081
3.662,7133.6,-21075
3.6612,7132.6,-21073
3.6618,7140.3,-21074
3.6612,7148.5,-21079
3.661,7144.2,-21075
3.6618,7147.8,-21068
3.6612,7154.4,-21072
3.661,7156.5,-21073
3.661,7156.9,-21080
3.661,7156.5,-21074
3.661,7157.4,-21073
3.661,7160.9,-21079
3.661,7163.7,-21082
3.661,7167.4,-21080
3.661,7176.4,-21076
3.661,7174.6,-21091
3.661,7182.2,-21105
3.661,7192.9,-21112
3.661,7192.7,-21121
3.661,7196.8,-21120
3.6602,7199.3,-21114
3.6608,7202.1,-21104
3.661,7208.6,-21087
3.661,7218.1,-21058
3.661,7218.4,-21075
3.6602,7219.9,-21086
3.66,7225.1,-21082
3.66,7220.8,-21081
3.66,7222.8,-21093
3.6608,7227.3,-21088
3.6602,7220.7,-21081
3.66,7225.2,-21075
3.66,7231.5,-21084
3.66,7246.9,-21068
3.66,7250.1,-21068
3.66,7254.7,-21073
3.66,7255.4,-21081
3.66,7256.2,-21079
3.6592,7256.1,-21086
3.6598,7246.9,-21092
3.66,7251,-21092
3.6592,7264.1,-21090
3.659,7264.1,-21085
3.659,7270.7,-21082
3.659,7278.4,-21088
3.659,7279.3,-21078
3.659,7282.6,-21073
3.659,7284,-21072
3.659,7285.7,-21081
3.659,7286.7,-21092
3.6598,7289.6,-21100
3.6592,7295.5,-21105
3.659,7304,-21097
3.659,7313.2,-21098
3.659,7324.5,-21097
3.659,7320.9,-21093
3.659,7324,-21094
3.659,7327.7,-21093
3.659,7324.1,-21103
3.6582,7330.1,-21111
3.6588,7328.9,-21093
3.6582,7331.3,-21083
3.658,7341.3,-21085
3.658,7353.2,-21086
3.658,7357.8,-21078
3.658,7367.3,-21076
3.658,7376.7,-21076
3.658,7369.3,-21068
3.658,7375.3,-21067
3.658,7382.2,-21085
3.658,7390.7,-21116
3.658,7392.3,-21125
3.658,7399.8,-21117
3.658,7404.9,-21104
3.658,7411,-21080
3.658,7421.2,-21060
3.658,7421.2,-21054
3.658,7424.8,-21074
3.658,7439,-21085
3.658,7448.9,-21093
3.6572,7452,-21091
3.6578,7459.4,-21082
3.658,7467.6,-21075
3.6572,7476,-21070
3.6578,7474.6,-21078
3.6572,7489.7,-21080
3.657,7494.6,-21075
3.657,7499,-21071
3.657,7503.8,-21063
3.657,7499.9,-21070
3.657,7509.2,-21081
3.657,7516.7,-21088
3.657,7522.9,-21093
3.657,7527.3,-21089
3.657,7529.6,-21084
3.657,7538.1,-21082
3.657,7544.4,-21090
3.657,7546.4,-21094
3.657,7545.8,-21096
3.6562,7550.9,-21101
3.656,7551.7,-21089
3.6568,7556.8,-21087
3.6562,7561.8,-21088
3.656,7567.8,-21083
3.656,7571.8,-21076
3.656,7573.5,-21069
3.656,7573.8,-21070
3.656,7574.1,-21075
3.6568,7581.1,-21086
3.6562,7580,-21096
3.656,7578.2,-21088
3.656,7577.8,-21088
3.656,7580.1,-21090
3.656,7583.6,-21090
3.6552,7580,-21082
3.6558,7575.1,-21075
3.656,7564.9,-21075
3.656,7556.1,-21078
3.6552,7538,-21090
3.6558,7531.9,-21107
3.6552,7526.8,-21111
3.655,7497.9,-21110
3.655,7478.9,-21112
3.655,7466.7,-21091
3.655,7445,-21066
3.6558,7431.5,-21063
3.6552,7417.9,-21063
3.655,7395.1,-21076
3.655,7381.4,-21077
3.655,7366.7,-21076
3.655,7356.7,-21077
3.655,7330.9,-21084
3.655,7318.8,-21080
3.655,7297.9,-21085
3.655,7287.9,-21079
3.655,7282,-21076
3.6542,7273.1,-21083
3.6548,7265.3,-21104
3.655,7252.2,-21098
3.655,7243.1,-21089
3.655,7229.8,-21087
3.6542,7219.5,-21073
3.654,7217,-21073
3.654,7210.8,-21078
3.654,7207.1,-21080
3.654,7205.2,-21083
3.654,7207.3,-21080
3.654,7203.1,-21082
3.654,7197.6,-21082
3.654,7193.3,-21087
3.654,7201,-21101
3.654,7193.7,-21105
3.654,7190.3,-21104
3.6532,7189.9,-21098
3.6538,7182.6,-21087
3.654,7185.1,-21091
3.654,7182.3,-21085
3.654,7183.5,-21099
3.654,7182.2,-21105
3.654,7184.6,-21109
3.654,7187.1,-21107
3.6532,7188.7,-21114
3.6538,7190.1,-21106
3.6532,7183.2,-21088
3.653,7180.9,-21073
3.653,7185.6,-21063
3.653,7185.9,-21066
3.653,7190.5,-21074
3.653,7187,-21076
3.653,7182.6,-21078
3.653,7188.3,-21085
3.653,7183.3,-21100
3.653,7185.7,-21106
3.653,7191.7,-21110
3.653,7195.9,-21098
3.6522,7203.9,-21087
3.6528,7199.4,-21086
3.653,7197.7,-21092
3.653,7204.5,-21093
3.653,7201.3,-21095
3.6522,7199,-21103
3.6528,7199,-21106
3.6522,7202.4,-21098
3.6528,7204.9,-21108
3.6522,7209.1,-21095
3.652,7210.6,-21073
3.652,7209.9,-21079
3.652,7218.3,-21079
3.652,7221.6,-21084
3.652,7226.5,-21080
3.652,7228.8,-21083
3.652,7234.4,-21087
3.652,7228.6,-21089
3.652,7219.5,-21092
3.652,7216.7,-21092
3.652,7221.5,-21098
3.652,7225.8,-21100
3.652,7218.4,-21090
3.6512,7216.4,-21088
3.651,7223.7,-21096
3.6518,7225.6,-21103
3.6512,7222.2,-21097
3.6518,7218,-21096
3.6512,7220.5,-21105
3.6518,7217.7,-21103
3.6512,7210.2,-21096
3.651,7216.2,-21092
3.651,7220.4,-21105
3.651,7222.8,-21117
3.651,7221.6,-21125
3.651,7216.3,-21132
3.651,7213.4,-21128
3.651,7209.1,-21125
3.651,7216.3,-21123
3.651,7215.2,-21114
3.651,7210.6,-21099
3.651,7212.9,-21078
3.651,7221.9,-21068
3.651,7222.6,-21056
3.651,7211.1,-21055
3.6502,7215.6,-21076
3.6507,7219.3,-21071
3.6503,7213.8,-21076
3.65,7209.4,-21089
3.65,7199.2,-21082
3.65,7203.1,-21082
3.65,7201.4,-21080
3.65,7200.3,-21084
3.65,7208.9,-21092
3.65,7209.9,-21100
3.65,7202.3,-21110
3.65,7196.1,-21102
3.65,7190.7,-21085
3.65,7182.3,-21078
3.65,7189.2,-21093
3.65,7199.6,-21098
3.65,7197.3,-21093
3.65,7197.5,-21097
3.65,7211.4,-21098
3.65,7209,-21089
3.65,7195,-21075
3.6492,7198.3,-21083
3.649,7179.4,-21079
3.6498,7186.6,-21083
3.6492,7189.2,-21089
3.649,7185.9,-21088
3.649,7186.7,-21097
3.649,7192.3,-21097
3.649,7192.4,-21100
3.649,7197.1,-21098
3.649,7195.1,-21099
3.649,7184.5,-21111
3.649,7183.6,-21124
3.649,7192.2,-21145
3.649,7185.7,-21129
3.649,7186.1,-21123
3.649,7197.1,-21116
3.649,7199.7,-21100
3.649,7190.8,-21068
3.6483,7184.6,-21049
3.6488,7195.6,-21059
3.649,7193.8,-21067
3.6483,7196.6,-21085
3.648,7191.2,-21113
3.648,7190.6,-21113
3.648,7186.8,-21094
3.648,7190,-21091
3.648,7192.4,-21088
3.648,7201.9,-21079
3.648,7207.5,-21080
3.648,7195.6,-21081
3.648,7197.8,-21089
3.648,7202.9,-21103
3.648,7193.6,-21104
3.648,7184.4,-21097
3.6473,7193,-21092
3.6477,7188.1,-21075
3.648,7200.5,-21079
3.648,7205.7,-21074
3.648,7197.4,-21075
3.648,7196.2,-21075
3.648,7202.3,-21076
3.6473,7212.9,-21080
3.6477,7209.4,-21068
3.6473,7203.8,-21067
3.647,7209.9,-21076
3.647,7208.8,-21084
3.647,7207.7,-21097
3.647,7205.5,-21101
3.647,7215.5,-21104
3.647,7226.9,-21090
3.647,7236,-21087
3.647,7241.6,-21092
3.647,7245.8,-21089
3.647,7262.6,-21077
3.647,7266.5,-21069
3.647,7279.4,-21084
3.647,7282.2,-21089
3.647,7307.4,-21117
3.647,7311,-21128
3.6463,7310,-21120
3.646,7318.4,-21113
3.646,7341.8,-21111
3.646,7320.3,-21086
3.646,7299.6,-21064
3.646,7324.1,-21081
3.646,7340,-21098
3.646,7349.1,-21096
3.646,7374.2,-21089
3.646,7390.6,-21092
3.646,7404.1,-21094
3.646,7415,-21088
3.646,7434.1,-21083
3.646,7460.6,-21081
3.646,7467.8,-21093
3.646,7453,-21101
3.6452,7442.6,-21099
3.645,7444.4,-21097
3.645,7448.1,-21085
3.645,7452.1,-21082
3.645,7442,-21063
3.645,7415.4,-21063
3.645,7380.1,-21075
3.645,7322.1,-21072
3.645,7291.7,-21071
3.645,7292.9,-21090
3.645,7279,-21092
3.645,7263.9,-21087
3.645,7262.3,-21089
3.645,7262.7,-21090
3.645,7258.4,-21096
3.645,7246.8,-21094
3.645,7235.1,-21086
3.645,7222.1,-21086
3.645,7219,-21111
3.6443,7196.3,-21112
3.6448,7179.2,-21101
3.6443,7187.5,-21106
3.6448,7204.5,-21113
3.6443,7204.4,-21100
3.644,7203.9,-21082
3.644,7205.4,-21080
3.644,7203.4,-21094
3.644,7202.9,-21099
3.644,7188.8,-21107
3.644,7187,-21117
3.644,7200.5,-21122
3.644,7195.9,-21105
3.644,7195.4,-21099
3.644,7193.5,-21097
3.644,7186.4,-21072
3.644,7195.8,-21072
3.644,7208,-21084
3.644,7204.7,-21089
3.6433,7193.7,-21088
3.643,7184.9,-21088
3.6437,7184.8,-21092
3.644,7194.3,-21095
3.644,7193.6,-21103
3.6433,7191.4,-21102
3.643,7197,-21097
3.643,7213.8,-21095
3.643,7210.6,-21095
3.643,7203.7,-21093
3.643,7198.1,-21097
3.643,7207.5,-21106
3.643,7206.1,-21113
3.643,7207,-21117
3.643,7209.1,-21110
3.643,7210.6,-21103
3.6423,7214.9,-21091
3.6427,7223.9,-21083
3.6423,7234.4,-21076
3.642,7237.4,-21079
3.6427,7233.8,-21080
3.643,7225.4,-21094
3.6423,7203.6,-21108
3.642,7190.3,-21106
3.642,7170.3,-21116
3.642,7179,-21122
3.642,7206.9,-21135
3.642,7269.9,-21129
3.642,7337.1,-21121
3.642,7413.6,-21110
3.642,7573.6,-21113
3.642,7743.3,-21124
3.642,7904.2,-21112
3.642,8050.9,-21111
3.642,8246.5,-21110
3.642,8464.4,-21101
3.642,8647.4,-21074
3.6412,8778.4,-21069
3.641,8821.5,-21041
3.6418,8722.9,-20996
3.642,8332.3,-20991
3.6412,7873.4,-21003
3.641,7437,-21010
3.641,7092.3,-21010
3.641,6921.5,-21020
3.641,6755.3,-21040
3.641,6645,-21055
3.641,6584.6,-21063
3.641,6552.9,-21065
3.641,6594.3,-21066
3.641,6684.3,-21070
3.641,6803.6,-21079
3.641,6931.4,-21089
3.641,7028.6,-21092
3.6402,7121,-21096
3.64,7203.7,-21102
3.6408,7266.1,-21096
3.641,7303.7,-21089
3.6402,7331.8,-21090
3.6408,7336.6,-21090
3.6402,7330.5,-21096
3.64,7328.6,-21094
3.64,7337.2,-21102
3.64,7337.9,-21099
3.64,7331.4,-21106
3.64,7337.5,-21126
3.64,7336.5,-21123
3.6392,7331.8,-21121
3.6398,7349.1,-21123
3.64,7343.3,-21095
3.64,7343.7,-21081
3.64,7354.4,-21071
3.64,7364.3,-21090
3.64,7362.5,-21096
3.64,7357.3,-21098
3.64,7358.9,-21108
3.64,7357.9,-21112
3.6392,7368.6,-21114
3.639,7381.7,-21116
3.639,7383.4,-21113
3.639,7397.7,-21110
3.639,7401.2,-21115
3.639,7388.2,-21094
3.639,7399.4,-21098
3.639,7401.1,-21098
3.639,7389.8,-21105
3.639,7397.9,-21105
3.639,7411.6,-21103
3.639,7419.6,-21096
3.639,7422.2,-21099
3.639,7418.7,-21101
3.639,7429.3,-21103
3.639,7431.9,-21096
3.639,7432,-21107
3.639,7425.1,-21118
3.639,7429.3,-21118
3.6382,7434,-21119
3.638,7440.6,-21106
3.638,7442.9,-21097
3.6388,7450.4,-21094
3.6382,7465.5,-21079
3.638,7461.3,-21085
3.638,7455.7,-21093
3.638,7463.2,-21097
3.638,7464.4,-21098
3.638,7466.6,-21104
3.638,7475.5,-21123
3.638,7476.3,-21129
3.638,7478.8,-21136
3.638,7486.1,-21156
3.638,7492.8,-21157
3.6372,7492.1,-21134
3.6378,7489.6,-21128
3.638,7495.4,-21115
3.638,7492.5,-21092
3.6372,7494.6,-21073
3.637,7506.8,-21080
3.637,7507,-21089
3.637,7519.4,-21096
3.637,7524.9,-21103
3.637,7536.5,-21112
3.637,7545.4,-21117
3.637,7540.1,-21107
3.637,7537.3,-21097
3.637,7540,-21098
3.637,7542.5,-21102
3.637,7543.3,-21096
3.637,7553,-21113
3.637,7562.8,-21121
3.6362,7570,-21129
3.636,7578.7,-21123
3.636,7584.6,-21123
3.636,7590.7,-21112
3.636,7588.8,-21106
3.636,7594.7,-21095
3.636,7595.9,-21099
3.636,7601.9,-21090
3.636,7608,-21087
3.636,7618.3,-21090
3.636,7620.8,-21099
3.636,7640.4,-21102
3.636,7640,-21102
3.636,7630.9,-21106
3.636,7634.2,-21101
3.636,7646.6,-21106
3.636,7652.5,-21104
3.636,7658.7,-21103
3.636,7668.2,-21109
3.636,7672.9,-21100
3.6352,7682.1,-21109
3.635,7696.6,-21115
3.635,7703,-21112
3.6358,7713.6,-21110
3.6352,7724.1,-21105
3.635,7727.6,-21098
3.635,7721.1,-21106
3.635,7733.4,-21106
3.635,7725.8,-21106
3.635,7727.8,-21112
3.635,7732.2,-21104
3.635,7740.3,-21103
3.635,7751,-21104
3.635,7762.6,-21110
3.635,7764.6,-21103
3.635,7763.3,-21107
3.6342,7768.1,-21126
3.6348,7770.8,-21114
3.635,7777,-21116
3.6342,7775.2,-21118
3.634,7778.1,-21112
3.634,7790.1,-21119
3.634,7799.7,-21129
3.634,7799,-21120
3.634,7793.9,-21109
3.634,7796.3,-21093
3.634,7798.8,-21102
3.634,7790.9,-21107
3.634,7790.8,-21114
3.634,7790.6,-21124
3.634,7788.5,-21133
3.6332,7791.4,-21147
3.6338,7783.8,-21144
3.634,7766.3,-21121
3.6332,7748.6,-21089
3.633,7730.3,-21082
3.633,7726.5,-21087
3.6338,7706.3,-21092
3.634,7684.5,-21098
3.6332,7670.2,-21103
3.633,7650.2,-21097
3.633,7636.1,-21101
3.633,7621,-21096
3.633,7607.1,-21091
3.633,7591.8,-21088
3.633,7577.1,-21097
3.633,7550.5,-21099
3.633,7538.3,-21097
3.633,7519.1,-21105
3.633,7506.1,-21111
3.633,7495,-21108
3.633,7492.9,-21107
3.633,7475.3,-21102
3.6322,7473.2,-21099
3.6328,7464,-21098
3.6322,7449,-21100
3.632,7429.9,-21098
3.6328,7422.9,-21099
3.6322,7432.7,-21124
3.632,7429.8,-21155
3.632,7419.7,-21166
3.632,7418.8,-21164
3.632,7421,-21157
3.632,7419.6,-21128
3.632,7416.6,-21105
3.632,7408.1,-21088
3.632,7406.4,-21069
3.632,7404,-21070
3.632,7398.6,-21080
3.6312,7406.3,-21108
3.631,7399.4,-21109
3.6318,7398.8,-21097
3.632,7405.6,-21101
3.6312,7411.8,-21106
3.6318,7412.9,-21109
3.6312,7410.8,-21099
3.631,7409.3,-21095
3.631,7406,-21088
3.631,7400.4,-21079
3.631,7405.3,-21091
3.631,7399.2,-21100
3.631,7396.5,-21104
3.631,7406.9,-21102
3.631,7412.4,-21097
3.6302,7415.1,-21105
3.6308,7416.4,-21110
3.631,7413.2,-21119
3.631,7418.9,-21120
3.631,7415,-21115
3.631,7418.7,-21116
3.6302,7427.5,-21104
3.63,7415.9,-21106
3.6308,7408.6,-21096
3.6302,7418.4,-21102
3.63,7422.9,-21103
3.63,7416.3,-21094
3.63,7410,-21098
3.63,7415.4,-21102
3.63,7416.3,-21111
3.63,7414.9,-21114
3.63,7409.4,-21123
3.63,7422.3,-21120
3.63,7416.3,-21119
3.63,7415.4,-21108
3.63,7422.9,-21099
3.6292,7412.1,-21092
3.6298,7418.1,-21094
3.63,7417.7,-21108
3.63,7421.6,-21113
3.6292,7416.6,-21103
3.629,7419.3,-21115
3.629,7428.4,-21137
3.629,7430.1,-21152
3.629,7427.7,-21144
3.629,7433.9,-21123
3.629,7433,-21112
3.629,7426.7,-21112
3.629,7430,-21110
3.629,7434.8,-21103
3.629,7425.5,-21101
3.629,7427.7,-21098
3.629,7430.1,-21107
3.629,7426.2,-21117
3.6282,7424.5,-21112
3.6288,7424.4,-21104
3.629,7433,-21100
3.6282,7429.6,-21099
3.6288,7418.2,-21101
3.6282,7418.2,-21093
3.628,7413,-21086
3.6288,7411.4,-21108
3.6282,7413.5,-21123
3.628,7414.6,-21125
3.628,7410.7,-21125
3.628,7415.9,-21120
3.628,7424.2,-21110
3.628,7416,-21095
3.628,7418.4,-21092
3.628,7412.8,-21110
3.628,7403.5,-21116
3.628,7411.7,-21113
3.628,7404.9,-21119
3.6272,7404.7,-21131
3.6278,7402.5,-21134
3.6272,7405.3,-21109
3.627,7405.3,-21092
3.627,7406.1,-21093
3.627,7412.1,-21087
3.627,7403.7,-21087
3.627,7400.9,-21098
3.627,7398.6,-21105
3.6278,7393.2,-21101
3.6272,7389.1,-21111
3.627,7395.9,-21111
3.627,7398.2,-21109
3.627,7400,-21103
3.627,7393.8,-21097
3.627,7386.4,-21096
3.627,7380.5,-21110
3.627,7383.7,-21122
3.627,7383.9,-21124
3.627,7378.9,-21128
3.6262,7388.2,-21131
3.6268,7394,-21121
3.627,7386.4,-21103
3.6262,7390.5,-21109
3.626,7396.3,-21103
3.626,7398.4,-21106
3.626,7394.1,-21117
3.626,7392.6,-21113
3.626,7389.8,-21110
3.626,7379.7,-21112
3.6252,7381.3,-21108
3.6258,7383.1,-21108
3.626,7377.1,-21112
3.626,7390.4,-21120
3.626,7391.3,-21115
3.626,7391,-21117
3.626,7386.2,-21117
3.626,7383.3,-21114
3.626,7384,-21108
3.626,7377.2,-21117
3.6252,7376.3,-21130
3.625,7374.6,-21132
3.625,7374.6,-21142
3.6258,7382.7,-21142
3.6252,7389.5,-21132
3.625,7383.8,-21117
3.6258,7389.4,-21105
3.6252,7378.6,-21101
3.625,7371.5,-21094
3.625,7369.6,-21077
3.625,7377.4,-21100
3.625,7389,-21112
3.6242,7383.4,-21123
3.6248,7392.6,-21127
3.625,7400.7,-21120
3.625,7411.8,-21105
3.625,7420.1,-21096
3.6242,7424.1,-21101
3.6248,7429.7,-21099
3.625,7436.7,-21107
3.625,7469.2,-21109
3.6242,7482,-21120
3.624,7470.3,-21126
3.624,7476.6,-21108
3.624,7496.9,-21116
3.624,7487.1,-21121
3.624,7486.7,-21099
3.624,7495.5,-21091
3.624,7505.3,-21098
3.624,7520.5,-21105
3.624,7537.1,-21121
3.624,7552.7,-21131
3.624,7552.8,-21134
3.624,7563.6,-21117
3.624,7602.8,-21103
3.6232,7626.8,-21085
3.6238,7622.1,-21081
3.624,7611,-21075
3.6232,7604.4,-21086
3.623,7596.7,-21103
3.623,7593,-21111
3.623,7591.3,-21128
3.623,7574.6,-21137
3.623,7547.5,-21132
3.623,7503.3,-21125
3.623,7463.1,-21114
3.623,7439.6,-21092
3.623,7427.9,-21092
3.623,7411.5,-21087
3.623,7403.3,-21095
3.623,7395.3,-21101
3.623,7390.9,-21106
3.6222,7377.1,-21109
3.6228,7371.3,-21113
3.6222,7373.4,-21115
3.622,7373.1,-21115
3.622,7364.1,-21107
3.622,7364.6,-21111
3.622,7361.8,-21112
3.6228,7361.6,-21111
3.6222,7356.1,-21115
3.622,7346.9,-21123
3.622,7338.8,-21135
3.622,7342.9,-21123
3.622,7343.5,-21118
3.622,7344.8,-21118
3.622,7343.6,-21131
3.622,7340.6,-21123
3.622,7343.3,-21113
3.622,7339.2,-21113
3.622,7336.4,-21118
3.622,7330.7,-21119
3.622,7331.8,-21120
3.622,7328.5,-21113
3.6212,7333.3,-21110
3.621,7333.4,-21100
3.621,7332.4,-21106
3.621,7331.9,-21111
3.621,7329.2,-21107
3.621,7319.8,-21109
3.621,7318.3,-21109
3.621,7324.1,-21113
3.621,7329.3,-21130
3.621,7324.9,-21130
3.621,7336,-21120
3.621,7328.2,-21109
3.621,7335.9,-21103
3.6202,7338.1,-21109
3.6208,7335.9,-21092
3.621,7337.4,-21097
3.6202,7346.6,-21103
3.62,7343.4,-21107
3.62,7338.5,-21112
3.62,7344.2,-21110
3.62,7345.2,-21110
3.62,7352.9,-21105
3.62,7350.5,-21097
3.62,7349,-21100
3.62,7327.7,-21108
3.62,7311.6,-21116
3.62,7301.4,-21133
3.62,7282.8,-21141
3.62,7321,-21149
3.62,7389.2,-21166
3.62,7448.1,-21153
3.62,7521.8,-21141
3.6192,7664.9,-21128
3.619,7827.8,-21115
3.619,7989.1,-21104
3.619,8122.4,-21098
3.6198,8316.4,-21084
3.6192,8536.3,-21078
3.619,8717.9,-21090
3.619,8854.8,-21085
3.619,8886.5,-21068
3.619,8774.5,-21028
3.619,8404.2,-21002
3.619,7957.9,-20994
3.619,7546.3,-20990
3.619,7227.7,-20984
3.619,7076,-21006
3.619,6898.7,-21044
3.619,6789.3,-21081
3.6182,6724.7,-21113
3.618,6684.3,-21114
3.618,6713.5,-21101
3.618,6786.9,-21086
3.618,6881,-21081
3.618,7007.5,-21084
3.618,7102.9,-21091
3.6188,7192.4,-21100
3.6182,7273.6,-21114
3.618,7338.8,-21110
3.618,7374.7,-21096
3.618,7401.7,-21091
3.618,7409.1,-21084
3.618,7412.6,-21081
3.618,7415.1,-21081
3.618,7416.6,-21092
3.618,7410.7,-21105
3.618,7406.5,-21110
3.618,7405.8,-21115
3.618,7408.6,-21111
3.6172,7418,-21104
3.617,7422.4,-21101
3.6178,7421.8,-21095
3.6172,7428.2,-21094
3.617,7436.6,-21093
3.617,7435.1,-21097
3.6178,7433.4,-21101
3.6172,7435.4,-21093
3.617,7431.6,-21097
3.617,7431.1,-21110
3.617,7432.9,-21111
3.617,7436.4,-21113
3.617,7441.4,-21118
3.617,7439.5,-21112
3.617,7453.1,-21109
3.617,7458.1,-21097
3.6162,7461.6,-21103
3.6168,7463.4,-21108
3.617,7467.1,-21117
3.617,7466.5,-21123
3.6162,7461.8,-21110
3.616,7465.2,-21103
3.616,7460.1,-21120
3.616,7462,-21126
3.616,7464.4,-21116
3.616,7478.5,-21111
3.616,7480.8,-21118
3.616,7474.8,-21126
3.616,7478.7,-21117
3.616,7473.9,-21112
3.616,7480.4,-21103
3.616,7481.6,-21108
3.616,7474.9,-21111
3.616,7483.9,-21108
3.616,7496.2,-21111
3.616,7496.8,-21109
3.616,7494,-21100
3.6152,7499.5,-21094
3.6158,7503.9,-21101
3.6152,7500.9,-21109
3.615,7502.7,-21112
3.615,7500.1,-21114
3.615,7508.8,-21107
3.615,7515.1,-21092
3.615,7527.2,-21080
3.615,7536.9,-21096
3.615,7532.3,-21112
3.615,7533.4,-21119
3.615,7541.2,-21105
3.615,7542.2,-21107
3.615,7544.8,-21107
3.615,7547.2,-21103
3.615,7559.3,-21095
3.615,7555.3,-21094
3.615,7554.8,-21093
3.615,7559.7,-21091
3.615,7561.3,-21088
3.615,7566.4,-21096
3.615,7568.3,-21113
3.615,7575.7,-21104
3.6142,7585,-21105
3.614,7585,-21096
3.614,7591.7,-21087
3.614,7606.4,-21097
3.614,7607.2,-21110
3.614,7610.9,-21122
3.614,7612.4,-21121
3.614,7606.8,-21114
3.614,7613.2,-21109
3.614,7616.3,-21097
3.614,7612.8,-21102
3.614,7624.3,-21121
3.614,7632.4,-21136
3.614,7638.4,-21129
3.6132,7652.5,-21120
3.613,7661.9,-21108
3.6138,7663.9,-21082
3.6132,7679.7,-21071
3.613,7678.1,-21078
3.613,7682.5,-21081
3.613,7688.1,-21091
3.613,7696,-21099
3.613,7703.9,-21100
3.613,7711.2,-21099
3.613,7711.4,-21099
3.613,7715.7,-21102
3.613,7720.9,-21100
3.613,7724.6,-21107
3.613,7731.8,-21118
3.613,7736.8,-21107
3.613,7733.9,-21103
3.613,7729.7,-21106
3.613,7728.3,-21102
3.613,7733.4,-21090
3.6122,7742.1,-21095
3.612,7748.5,-21100
3.612,7761.8,-21082
3.612,7765.7,-21085
3.612,7771.6,-21090
3.612,7774.5,-21091
3.612,7775.8,-21088
3.612,7777.1,-21082
3.612,7774,-21099
3.612,7769.4,-21121
3.612,7768,-21130
3.612,7774,-21134
3.612,7781,-21108
3.612,7788.9,-21101
3.612,7788.7,-21092
3.612,7781.2,-21074
3.612,7775.8,-21084
3.612,7761.9,-21084
3.612,7750.6,-21087
3.612,7739.2,-21084
3.612,7725.1,-21090
3.6112,7718.6,-21096
3.6118,7714,-21095
3.6112,7701.4,-21087
3.6118,7687.3,-21091
3.6112,7666.9,-21095
3.611,7657.8,-21095
3.611,7641.3,-21098
3.611,7621.7,-21091
3.611,7593.6,-21082
3.611,7580.4,-21090
3.611,7566.4,-21093
3.611,7554,-21099
3.611,7541.1,-21098
3.6102,7522.9,-21098
3.6108,7507.6,-21101
3.611,7494.9,-21094
3.611,7475.3,-21088
3.611,7460.1,-21083
3.611,7450.1,-21098
3.611,7441.8,-21099
3.611,7433.4,-21098
3.6102,7427.9,-21089
3.61,7424.7,-21094
3.6108,7414.6,-21086
3.611,7414.2,-21085
3.6102,7410.7,-21075
3.61,7398.2,-21085
3.61,7381.2,-21106
3.61,7380.5,-21113
3.61,7368.1,-21119
3.61,7367.1,-21113
3.61,7369.5,-21096
3.61,7368.2,-21081
3.61,7369.4,-21080
3.61,7364.1,-21079
3.61,7364.1,-21082
3.61,7359.1,-21085
3.61,7351.2,-21096
3.6092,7354,-21100
3.6098,7358.5,-21100
3.6092,7357.8,-21098
3.609,7362.6,-21094
3.609,7370.1,-21099
3.609,7365.6,-21104
3.609,7358.2,-21108
3.609,7356.6,-21108
3.609,7358.8,-21102
3.609,7360.8,-21102
3.609,7356.1,-21104
3.609,7359.5,-21095
3.609,7361,-21089
3.609,7367.6,-21091
3.609,7371.3,-21078
3.609,7373.6,-21087
3.609,7375.7,-21098
3.609,7372.1,-21107
3.609,7374.9,-21117
3.609,7363.7,-21109
3.6082,7358.1,-21093
3.6088,7362.5,-21085
3.609,7368.9,-21060
3.609,7372.8,-21060
3.6082,7371.7,-21075
3.608,7368.6,-21092
3.6088,7369.4,-21100
3.6082,7371.7,-21091
3.608,7364.4,-21089
3.608,7362.4,-21110
3.608,7365.5,-21113
3.608,7366.5,-21116
3.608,7375.4,-21107
3.608,7377,-21081
3.608,7377.5,-21069
3.608,7374.1,-21074
3.608,7363.5,-21082
3.608,7357.4,-21089
3.608,7356.8,-21090
3.608,7355.2,-21082
3.6072,7352.9,-21077
3.6078,7350.6,-21086
3.6072,7358.5,-21087
3.607,7358,-21081
3.607,7357.8,-21084
3.6078,7354.1,-21080
3.608,7358.5,-21075
3.6072,7352.4,-21066
3.6078,7350.8,-21071
3.6072,7346.3,-21084
3.607,7339.5,-21086
3.607,7340.6,-21091
3.607,7346.7,-21092
3.607,7349.6,-21099
3.607,7350.9,-21098
3.6062,7351.1,-21096
3.6068,7349,-21097
3.607,7351,-21087
3.607,7338.6,-21073
3.607,7339.7,-21071
3.607,7335.6,-21086
3.607,7332.1,-21122
3.607,7342,-21146
3.6062,7346.4,-21128
3.6068,7341.1,-21107
3.6062,7338.3,-21082
3.606,7340,-21063
3.606,7331.3,-21066
3.6068,7320.5,-21081
3.6062,7317,-21095
3.606,7312.6,-21094
3.6068,7307,-21084
3.6062,7314.9,-21081
3.606,7309.6,-21088
3.606,7309,-21082
3.6052,7302.6,-21078
3.6058,7305.4,-21085
3.606,7294.4,-21086
3.606,7289.6,-21094
3.606,7279.9,-21098
3.606,7284,-21093
3.606,7282.7,-21091
3.606,7286.1,-21084
3.606,7287.4,-21081
3.606,7291.2,-21087
3.6052,7284.6,-21103
3.605,7286.2,-21097
3.6058,7289.6,-21089
3.6052,7285.7,-21091
3.6058,7279.7,-21086
3.606,7280.1,-21092
3.6052,7273.1,-21094
3.6058,7273.2,-21101
3.6052,7273.2,-21101
3.605,7273.6,-21096
3.605,7265.7,-21077
3.605,7279.3,-21075
3.605,7278.4,-21065
3.605,7282.9,-21073
3.605,7275.5,-21079
3.605,7275.8,-21082
3.605,7272.7,-21107
3.605,7268.2,-21112
3.605,7263.8,-21112
3.605,7269.3,-21107
3.605,7263.8,-21107
3.605,7269.5,-21086
3.605,7267.4,-21080
3.6042,7261.7,-21063
3.6048,7265.3,-21057
3.605,7265.4,-21073
3.6042,7260.2,-21075
3.604,7270.9,-21083
3.604,7270.8,-21101
3.604,7270,-21097
3.604,7269.9,-21091
3.604,7274.2,-21097
3.604,7277.2,-21107
3.604,7270,-21112
3.604,7261,-21110
3.604,7261.1,-21092
3.604,7269.2,-21095
3.604,7260.9,-21091
3.604,7262.3,-21083
3.604,7267.7,-21074
3.604,7281.3,-21091
3.604,7298.7,-21077
3.604,7304,-21072
3.604,7314.1,-21066
3.604,7326.1,-21071
3.6032,7349.8,-21079
3.603,7356.4,-21084
3.603,7348.9,-21087
3.6038,7359.9,-21093
3.6032,7364.3,-21098
3.603,7356.9,-21102
3.603,7350.3,-21119
3.603,7360.3,-21120
3.603,7362.4,-21106
3.603,7381.4,-21093
3.603,7402.7,-21101
3.603,7420,-21098
3.603,7426,-21092
3.6022,7431.2,-21089
3.6028,7463,-21081
3.603,7484.8,-21076
3.603,7487.2,-21080
3.603,7478.6,-21069
3.6022,7469.1,-21069
3.6028,7472.5,-21059
3.603,7463.4,-21045
3.603,7462.3,-21053
3.6022,7454,-21049
3.6028,7423.5,-21062
3.6022,7379.6,-21069
3.602,7329.5,-21064
3.602,7302.5,-21066
3.602,7297.3,-21062
3.602,7292.5,-21063
3.602,7281.6,-21075
3.602,7263,-21071
3.602,7270,-21078
3.602,7252.9,-21081
3.602,7245,-21080
3.602,7233.3,-21081
3.602,7219.5,-21086
3.602,7219.1,-21082
3.602,7210.1,-21089
3.602,7211.4,-21083
3.602,7215,-21090
3.602,7209.7,-21085
3.602,7198.2,-21095
3.6012,7203.1,-21091
3.601,7202.9,-21086
3.601,7203.9,-21088
3.601,7207.8,-21087
3.601,7207,-21071
3.601,7199.5,-21067
3.601,7196.6,-21072
3.601,7197.8,-21074
3.601,7199.8,-21075
3.601,7198,-21078
3.601,7201.1,-21098
3.601,7189.5,-21122
3.601,7182.8,-21126
3.601,7181.3,-21119
3.601,7181.6,-21097
3.601,7178.9,-21062
3.6002,7180.9,-21037
3.6008,7183.6,-21050
3.601,7185.2,-21053
3.601,7183.9,-21070
3.601,7185.1,-21081
3.6002,7182.2,-21087
3.6008,7175,-21081
3.6002,7176.6,-21087
3.6,7175.5,-21079
3.6,7184.2,-21075
3.6,7178.7,-21077
3.6,7194.1,-21076
3.6,7190.8,-21072
3.6,7186.3,-21077
3.6,7185.4,-21083
3.6,7189.6,-21086
3.6,7180.4,-21092
3.6,7183.1,-21095
3.6,7179,-21086
3.6,7176.7,-21092
3.6,7162.9,-21084
3.6,7158.8,-21066
3.6,7141.7,-21063
3.6,7132.3,-21067
3.6,7159.5,-21076
3.6,7206.3,-21082
3.6,7259.7,-21082
3.5991,7336.1,-21090
3.599,7452.9,-21105
3.599,7622.6,-21097
3.599,7779.3,-21101
3.599,7915.7,-21088
3.599,8083.8,-21080
3.599,8317.6,-21071
3.599,8505.7,-21065
3.599,8644.6,-21057
3.599,8719.1,-21037
3.599,8691.9,-20995
3.599,8364,-20963
3.599,7937,-20959
3.599,7496.5,-20974
3.599,7110.8,-20963
3.599,6892.9,-20974
3.5982,6753.4,-20989
3.5989,6607.8,-21007
3.599,6543.8,-21026
3.5982,6492.9,-21034
3.5989,6495.4,-21038
3.5982,6551.6,-21054
3.598,6635.9,-21082
3.598,6734.4,-21096
3.598,6852.7,-21089
3.598,6950.5,-21078
3.598,7043.4,-21069
3.598,7115.2,-21049
3.598,7172.1,-21045
3.598,7211.6,-21057
3.598,7232.9,-21059
3.598,7238.5,-21061
3.598,7240.6,-21066
3.598,7249.4,-21073
3.598,7251.1,-21063
3.598,7250.5,-21081
3.5971,7243.7,-21071
3.5979,7251.5,-21068
3.598,7246.8,-21076
3.598,7262.7,-21075
3.5971,7254,-21073
3.597,7263.4,-21075
3.597,7265.5,-21077
3.5979,7259,-21082
3.5971,7251.3,-21087
3.597,7263.4,-21086
3.597,7266.8,-21085
3.597,7267.8,-21096
3.597,7273.2,-21098
3.597,7267.9,-21086
3.597,7264.6,-21087
3.597,7273.7,-21081
3.597,7281.2,-21068
3.597,7285,-21077
3.597,7294,-21075
3.597,7300.8,-21065
3.5961,7307.6,-21069
3.5969,7308.3,-21070
3.597,7295.5,-21072
3.597,7293.6,-21079
3.5961,7297,-21071
3.5969,7299.9,-21081
3.597,7308.9,-21088
3.5961,7312.1,-21084
3.596,7316.7,-21077
3.596,7322.9,-21073
3.5969,7330.5,-21072
3.5961,7331.7,-21067
3.596,7330.9,-21070
3.596,7336.1,-21084
3.596,7330.6,-21107
3.596,7325.8,-21114
3.596,7328.6,-21113
3.596,7340.3,-21096
3.5951,7343.7,-21079
3.5959,7344.5,-21057
3.596,7348.9,-21052
3.596,7357.8,-21066
3.5951,7346.7,-21074
3.5959,7351.1,-21075
3.5951,7355.7,-21079
3.5959,7355.7,-21080
3.5951,7362,-21102
3.595,7364,-21117
3.595,7379.4,-21109
3.595,7378.3,-21093
3.595,7385.4,-21083
3.595,7388.3,-21067
3.595,7378.2,-21051
3.595,7381.8,-21065
3.595,7390.3,-21073
3.595,7394.4,-21079
3.595,7395.5,-21087
3.595,7403.1,-21088
3.595,7403.8,-21098
3.595,7404,-21110
3.595,7412.2,-21108
3.595,7412.6,-21104
3.595,7420.6,-21100
3.595,7422.9,-21098
3.5941,7424.9,-21083
3.5949,7421.3,-21069
3.595,7435.7,-21078
3.5941,7436.2,-21082
3.594,7439.6,-21095
3.594,7447.5,-21082
3.594,7449.8,-21083
3.594,7461.4,-21080
3.594,7468.9,-21083
3.594,7469.8,-21068
3.594,7482.4,-21061
3.594,7480.2,-21057
3.594,7486.9,-21070
3.594,7489.5,-21077
3.5931,7495.4,-21088
3.5939,7495.1,-21087
3.594,7500.6,-21079
3.594,7509.3,-21083
3.594,7522.1,-21085
3.594,7525.5,-21100
3.5931,7521.9,-21110
3.593,7529.2,-21097
3.593,7530.9,-21097
3.593,7531.3,-21083
3.593,7543.2,-21071
3.593,7557.4,-21080
3.593,7566.4,-21085
3.593,7576.6,-21082
3.593,7571.1,-21082
3.593,7572,-21074
3.593,7575.7,-21079
3.593,7577.6,-21084
3.593,7589.8,-21098
3.593,7588.1,-21114
3.593,7598.3,-21110
3.593,7595.9,-21100
3.593,7600.8,-21098
3.5921,7604.6,-21097
3.5929,7600.3,-21093
3.593,7597.4,-21094
3.593,7602.8,-21086
3.593,7600.3,-21080
3.5921,7605.3,-21070
3.592,7613.3,-21077
3.592,7613.8,-21079
3.592,7621.2,-21087
3.592,7612.3,-21086
3.592,7613.1,-21076
3.592,7614.4,-21079
3.592,7610.6,-21066
3.592,7596.2,-21064
3.592,7585.4,-21061
3.5911,7573,-21081
3.5919,7562.8,-21090
3.5911,7538,-21100
3.5919,7532.2,-21099
3.592,7519.3,-21092
3.5911,7505.1,-21087
3.591,7491.8,-21077
3.5919,7477.9,-21069
3.5911,7455.6,-21068
3.591,7435.9,-21075
3.591,7413.4,-21087
3.591,7402.6,-21083
3.591,7384.2,-21087
3.591,7367.3,-21084
3.591,7351.1,-21074
3.591,7340.2,-21071
3.591,7326.4,-21078
3.591,7305.7,-21076
3.591,7295.6,-21082
3.591,7285.4,-21094
3.591,7267.6,-21093
3.591,7245.4,-21093
3.591,7247.3,-21090
3.591,7238.3,-21063
3.5901,7236.6,-21078
3.59,7236,-21103
3.5909,7223.7,-21106
3.5901,7220.8,-21106
3.5909,7208.3,-21104
3.5901,7208.3,-21095
3.59,7202.7,-21075
3.59,7195.5,-21064
3.59,7189.3,-21055
3.59,7185.8,-21074
3.59,7185.4,-21075
3.59,7184.3,-21074
3.59,7192.1,-21084
3.59,7188,-21083
3.59,7180.6,-21085
3.59,7190.4,-21076
3.59,7190.6,-21080
3.59,7186.4,-21089
3.5891,7188,-21074
3.589,7185.2,-21074
3.5899,7186.7,-21075
3.59,7186.6,-21068
3.5891,7188.7,-21062
3.589,7199,-21062
3.589,7203.6,-21059
3.589,7198.3,-21061
3.589,7195.1,-21069
3.589,7186.5,-21071
3.589,7192,-21091
3.589,7184.4,-21102
3.589,7182.9,-21098
3.589,7184.9,-21097
3.589,7191.7,-21091
3.589,7209.6,-21075
3.589,7199.2,-21075
3.589,7204.4,-21077
3.589,7196.5,-21077
3.589,7198.4,-21082
3.589,7193.6,-21093
3.5881,7195.3,-21113
3.588,7189.8,-21117
3.588,7189.3,-21099
3.588,7197.1,-21098
3.588,7199.5,-21084
3.588,7210.1,-21060
3.588,7205,-21050
3.588,7213,-21046
3.588,7213.8,-21043
3.588,7209.9,-21063
3.588,7208.6,-21067
3.588,7206.6,-21074
3.588,7207.7,-21078
3.5871,7204.3,-21072
3.5879,7209.6,-21060
3.588,7212.5,-21053
3.5871,7213.3,-21057
3.5879,7206.7,-21060
3.588,7207.4,-21072
3.588,7210.4,-21109
3.5871,7207.7,-21130
3.587,7205.1,-21130
3.587,7202.9,-21118
3.587,7199.8,-21093
3.587,7200.6,-21070
3.587,7205.2,-21055
3.587,7204.7,-21063
3.587,7202.7,-21075
3.587,7201.9,-21090
3.587,7203.9,-21095
3.587,7187.9,-21101
3.587,7193.8,-21105
3.587,7194.1,-21096
3.587,7195.5,-21077
3.587,7195.9,-21060
3.587,7191.9,-21049
3.587,7183,-21049
3.587,7190,-21066
3.587,7187.6,-21071
3.587,7186.8,-21073
3.5861,7184.8,-21070
3.586,7186.1,-21083
3.586,7197.6,-21086
3.586,7192.6,-21086
3.586,7185.5,-21083
3.586,7183.2,-21082
3.586,7183.1,-21072
3.586,7179.4,-21071
3.586,7175.2,-21047
3.586,7178.5,-21056
3.586,7164,-21059
3.586,7165.9,-21074
3.586,7166.7,-21082
3.586,7164.8,-21078
3.586,7171.1,-21086
3.5851,7174.8,-21083
3.5859,7179,-21075
3.586,7176,-21072
3.586,7171.3,-21066
3.5851,7171.4,-21070
3.585,7167.6,-21082
3.5859,7159.7,-21078
3.5851,7163.5,-21076
3.5859,7171.5,-21074
3.5851,7159.7,-21061
3.585,7175.1,-21060
3.585,7161.2,-21063
3.585,7149.6,-21067
3.585,7154.9,-21076
3.585,7150.4,-21078
3.585,7150,-21091
3.585,7151.3,-21109
3.585,7156.8,-21134
3.585,7160.6,-21148
3.585,7163.3,-21137
3.585,7165.6,-21120
3.585,7171.5,-21091
3.585,7170.4,-21067
3.5841,7171.3,-21033
3.5849,7170.4,-21040
3.5841,7162.3,-21041
3.5849,7161,-21058
3.585,7148.5,-21077
3.5841,7151.8,-21077
3.584,7157.2,-21081
3.584,7162.7,-21081
3.584,7179.9,-21083
3.584,7193.9,-21087
3.584,7192.4,-21072
3.5849,7201.9,-21063
3.5841,7212.1,-21066
3.584,7230.3,-21064
3.584,7241.6,-21080
3.584,7237,-21097
3.584,7244.3,-21097
3.584,7246.9,-21080
3.584,7242.3,-21075
3.584,7249.4,-21076
3.584,7256.1,-21077
3.584,7270.2,-21081
3.584,7285.7,-21080
3.584,7302.5,-21076
3.5831,7311.4,-21077
3.5839,7318.3,-21083
3.584,7331.1,-21091
3.5831,7368.7,-21094
3.5839,7374.9,-21071
3.584,7385.8,-21088
3.584,7368.4,-21077
3.584,7363.1,-21084
3.584,7364.1,-21086
3.584,7355.2,-21076
3.5831,7354.5,-21074
3.583,7341.6,-21064
3.583,7316.1,-21044
3.583,7269,-21043
3.583,7220,-21041
3.583,7198.9,-21048
3.583,7187,-21046
3.583,7173.6,-21046
3.583,7169.8,-21054
3.583,7163.1,-21058
3.583,7156.5,-21068
3.583,7149,-21076
3.583,7134.8,-21099
3.583,7120.7,-21105
3.583,7113.3,-21093
3.583,7113.3,-21094
3.5821,7111.3,-21089
3.5829,7106.8,-21081
3.583,7105.8,-21089
3.583,7099.8,-21105
3.5821,7097.4,-21096
3.582,7085,-21092
3.582,7089.1,-21090
3.582,7095.2,-21084
3.582,7099.4,-21071
3.582,7099.8,-21070
3.582,7094.5,-21076
3.582,7093.7,-21077
3.582,7086.9,-21068
3.582,7082.4,-21070
3.582,7075.9,-21078
3.582,7081.5,-21083
3.582,7082.9,-21076
3.582,7081.9,-21063
3.582,7077.2,-21066
3.582,7086,-21048
3.582,7085.9,-21054
3.582,7082.1,-21063
3.5811,7081.6,-21069
3.5819,7078.8,-21077
3.582,7078.4,-21092
3.5811,7072.9,-21084
3.5819,7081.4,-21093
3.582,7078.8,-21088
3.5811,7082.6,-21084
3.5819,7085.7,-21061
3.5811,7095.5,-21066
3.5819,7099.4,-21079
3.5811,7096.1,-21083
3.581,7102.5,-21083
3.581,7103.6,-21083
3.581,7098.9,-21082
3.581,7092.4,-21060
3.581,7099.9,-21042
3.581,7095.1,-21055
3.581,7098.4,-21070
3.581,7107.6,-21070
3.581,7098.9,-21068
3.581,7083,-21071
3.581,7064.1,-21075
3.581,7043.7,-21075
3.581,7056.7,-21087
3.581,7091.9,-21086
3.581,7153.4,-21094
3.581,7229.8,-21096
3.5801,7356.8,-21100
3.5809,7515.8,-21086
3.581,7683.5,-21080
3.5801,7843.2,-21068
3.5809,7981.5,-21058
3.581,8227.9,-21046
3.5801,8427,-21041
3.58,8570,-21037
3.58,8664.5,-21032
3.58,8679.6,-21003
3.58,8450.1,-20984
3.58,7998.4,-20973
3.58,7577.2,-20976
3.5809,7097.7,-20968
3.5801,6826.6,-20980
3.58,6710.8,-20994
3.58,6594.4,-21007
3.58,6508.1,-21018
3.58,6477.1,-21030
3.58,6459.7,-21039
3.58,6486.4,-21041
3.58,6542.9,-21041
3.58,6609.4,-21046
3.58,6684.6,-21059
3.58,6771.4,-21064
3.58,6870.3,-21072
3.58,6944.7,-21085
3.5791,7013.3,-21089
3.5799,7070.8,-21111
3.5791,7113.8,-21109
3.579,7145.9,-21087
3.5799,7164.2,-21079
3.58,7167.9,-21080
3.5791,7166.9,-21072
3.5799,7169.8,-21066
3.5791,7168.3,-21066
3.579,7169.3,-21065
3.579,7167.1,-21044
3.579,7169.7,-21055
3.579,7177.5,-21054
3.579,7181.8,-21057
3.579,7187.8,-21057
3.579,7193.4,-21057
3.579,7203.4,-21052
3.579,7203.1,-21054
3.579,7201.2,-21060
3.579,7201.9,-21066
3.579,7201.3,-21076
3.579,7205,-21083
3.579,7208.1,-21083
3.579,7218.5,-21085
3.579,7223.3,-21077
3.5781,7227,-21088
3.5789,7232.6,-21086
3.5781,7236,-21085
3.5789,7230.5,-21084
3.579,7228.3,-21078
3.5781,7227.5,-21070
3.578,7230.6,-21069
3.578,7237,-21069
3.578,7240.9,-21066
3.578,7247.6,-21058
3.5789,7259.8,-21062
3.5781,7260.3,-21064
3.578,7261.9,-21062
3.578,7261.6,-21072
3.578,7264.9,-21081
3.578,7268.9,-21080
3.578,7264.2,-21085
3.578,7266.4,-21081
3.578,7262.4,-21078
3.578,7267.6,-21066
3.578,7271.1,-21077
3.5771,7282,-21081
3.5779,7281.9,-21074
3.578,7277.4,-21081
3.578,7282.4,-21072
3.578,7285.1,-21072
3.578,7288.2,-21066
3.578,7287.4,-21073
3.578,7293.6,-21085
3.578,7293.6,-21091
3.578,7300,-21079
3.5771,7313,-21079
3.5779,7319.6,-21073
3.578,7319.7,-21076
3.578,7320.2,-21072
3.5771,7325.1,-21079
3.577,7323.1,-21084
3.577,7322.9,-21078
3.577,7336.6,-21091
3.577,7341,-21080
3.577,7349.6,-21080
3.577,7356.9,-21053
3.577,7358.4,-21044
3.577,7363.8,-21041
3.577,7369.4,-21055
3.577,7376.3,-21071
3.577,7373.1,-21075
3.577,7376.8,-21077
3.577,7383.7,-21095
3.577,7389.2,-21101
3.577,7394.7,-21094
3.577,7403.7,-21082
3.577,7408.2,-21067
3.577,7407.5,-21055
3.577,7412.8,-21037
3.577,7415.2,-21038
3.577,7420.1,-21058
3.577,7432.3,-21080
3.577,7431.3,-21083
3.577,7437.4,-21091
3.5761,7449.1,-21079
3.576,7458.7,-21074
3.5769,7459.8,-21053
3.5761,7470.8,-21042
3.576,7474,-21046
3.576,7482.8,-21062
3.576,7487.6,-21078
3.576,7491,-21079
3.576,7491.7,-21077
3.576,7508.4,-21068
3.576,7512.4,-21068
3.576,7515.6,-21055
3.576,7526.8,-21051
3.576,7527.5,-21042
3.576,7532,-21056
3.576,7533.3,-21071
3.576,7536.3,-21076
3.576,7536.7,-21076
3.576,7543.2,-21082
3.576,7551.5,-21086
3.576,7553.1,-21073
3.576,7554.5,-21065
3.576,7554.5,-21070
3.576,7555.1,-21053
3.576,7561.2,-21044
3.576,7557.4,-21059
3.576,7556.8,-21064
3.5751,7560.9,-21078
3.575,7569.1,-21084
3.575,7571.3,-21082
3.575,7568,-21081
3.575,7567.1,-21068
3.575,7570.1,-21063
3.575,7580.4,-21045
3.575,7571.1,-21054
3.575,7573.1,-21078
3.5759,7567.9,-21093
3.5751,7559.2,-21088
3.575,7546.2,-21087
3.575,7537.7,-21090
3.575,7524.9,-21075
3.575,7512.9,-21053
3.575,7502.8,-21046
3.575,7490.7,-21044
3.575,7475.4,-21053
3.575,7456.9,-21068
3.575,7442.7,-21072
3.575,7425.4,-21061
3.575,7403.1,-21068
3.575,7390.8,-21063
3.575,7376.1,-21055
3.575,7361.4,-21057
3.575,7338.9,-21052
3.575,7330,-21050
3.575,7312.9,-21062
3.575,7305.9,-21075
3.5741,7294.9,-21084
3.5749,7282.7,-21092
3.5741,7263.9,-21091
3.574,7247.9,-21079
3.574,7240.4,-21078
3.574,7238.2,-21070
3.574,7225.2,-21055
3.574,7226.6,-21049
3.574,7217.7,-21044
3.574,7211.4,-21051
3.574,7208.9,-21051
3.574,7202.1,-21055
3.574,7201.3,-21061
3.574,7202.4,-21058
3.574,7195.7,-21058
3.574,7198.6,-21060
3.574,7197.2,-21052
3.574,7197.6,-21054
3.574,7195.1,-21052
3.574,7191.8,-21057
3.574,7192.3,-21054
3.574,7197.3,-21065
3.574,7191.6,-21076
3.574,7194.2,-21077
3.574,7193.5,-21092
3.574,7195.1,-21090
3.574,7198.8,-21086
3.574,7199.1,-21072
3.574,7197.9,-21066
3.5731,7201.2,-21054
3.5739,7203.6,-21044
3.574,7202.2,-21042
3.574,7202.2,-21055
3.5731,7200.1,-21072
3.573,7201.2,-21083
3.573,7207.4,-21081
3.5739,7205.6,-21075
3.574,7207.7,-21066
3.574,7207.8,-21060
3.5731,7212.9,-21061
3.573,7209.5,-21057
3.573,7214.9,-21066
3.573,7214.2,-21050
3.573,7218.1,-21048
3.573,7219,-21055
3.573,7218.2,-21059
3.573,7221.6,-21050
3.573,7216.4,-21062
3.573,7228.2,-21065
3.573,7224.6,-21061
3.573,7215.6,-21064
3.573,7216,-21069
3.573,7215.3,-21068
3.573,7211.3,-21057
3.573,7214,-21063
3.573,7222.4,-21067
3.573,7221.3,-21064
3.573,7220.6,-21057
3.5721,7225.4,-21054
3.5729,7227.2,-21054
3.573,7226.4,-21060
3.573,7228.3,-21065
3.573,7222.7,-21078
3.5721,7216.9,-21080
3.5729,7218.6,-21066
3.573,7219.6,-21061
3.5721,7220.5,-21066
3.572,7224.1,-21063
3.572,7227.9,-21053
3.572,7233.1,-21058
3.572,7230,-21076
3.572,7223.9,-21082
3.572,7223,-21074
3.572,7216.6,-21064
3.572,7219.5,-21057
3.572,7219.3,-21056
3.572,7221.8,-21044
3.572,7217,-21040
3.572,7221.9,-21042
3.572,7227.4,-21050
3.572,7224,-21041
3.572,7221.7,-21055
3.572,7220.5,-21054
3.572,7218.7,-21046
3.572,7210.6,-21035
3.572,7211.1,-21035
3.572,7211.5,-21040
3.572,7214.3,-21051
3.572,7211.9,-21056
3.572,7219.2,-21060
3.572,7219.4,-21065
3.572,7211.4,-21064
3.572,7204.9,-21057
3.572,7203.7,-21055
3.572,7200.5,-21057
3.572,7197.9,-21058
3.5711,7201.2,-21056
3.5719,7206.4,-21052
3.572,7197,-21052
3.5711,7200.5,-21045
3.5719,7202.5,-21055
3.572,7196.7,-21070
3.572,7195.1,-21094
3.5711,7200.1,-21111
3.5719,7197.2,-21125
3.5711,7200.7,-21133
3.571,7198.2,-21119
3.571,7197.5,-21091
3.571,7201.8,-21069
3.571,7201.4,-21061
3.571,7211.2,-21032
3.571,7206.5,-21020
3.571,7199.4,-21013
3.571,7202.4,-21024
3.571,7198.9,-21037
3.571,7193.1,-21042
3.571,7191.6,-21055
3.571,7198.3,-21063
3.571,7197.5,-21068
3.571,7202.2,-21057
3.571,7200.8,-21043
3.571,7198,-21043
3.571,7208.7,-21049
3.571,7204.6,-21060
3.5701,7202.1,-21076
3.5709,7202.2,-21089
3.571,7193.1,-21087
3.571,7193.9,-21090
3.571,7197.9,-21083
3.571,7198.7,-21040
3.571,7211.8,-21055
3.571,7204.4,-21053
3.571,7203.3,-21043
3.5701,7206,-21038
3.5709,7215.9,-21028
3.571,7212.7,-21026
3.571,7218.8,-21041
3.571,7222.4,-21045
3.5701,7229.4,-21045
3.57,7242.9,-21044
3.57,7261.4,-21044
3.57,7276.1,-21037
3.57,7288.4,-21043
3.57,7303.3,-21038
3.57,7330.8,-21030
3.57,7325.4,-21033
3.57,7322.5,-21031
3.57,7332.5,-21036
3.57,7323.6,-21043
3.57,7322.4,-21046
3.57,7338.9,-21047
3.57,7344,-21043
3.57,7356.7,-21035
3.57,7375.3,-21040
3.57,7385.3,-21049
3.57,7386.6,-21058
3.57,7389.1,-21070
3.57,7412.6,-21064
3.57,7451.4,-21068
3.57,7460.6,-21069
3.57,7457.9,-21066
3.57,7448.1,-21054
3.57,7447.3,-21040
3.57,7450.4,-21040
3.57,7448.2,-21036
3.57,7431.4,-21032
3.5691,7418.3,-21034
3.5699,7374.5,-21046
3.5691,7325.3,-21051
3.569,7290.1,-21042
3.569,7276.3,-21038
3.569,7265.4,-21042
3.5699,7251.7,-21038
3.57,7244,-21041
3.5691,7234.6,-21048
3.569,7228.7,-21054
3.569,7221.4,-21055
3.569,7215.8,-21059
3.569,7207.6,-21066
3.569,7200.3,-21065
3.569,7194.9,-21061
3.569,7204,-21050
3.569,7204.6,-21051
3.569,7200.3,-21054
3.569,7201.9,-21054
3.569,7200.5,-21057
3.569,7191.8,-21060
3.569,7189.4,-21064
3.569,7178.5,-21064
3.569,7179.5,-21062
3.569,7185.9,-21060
3.569,7195.7,-21055
3.569,7184.6,-21053
3.569,7185,-21051
3.569,7186.6,-21056
3.569,7184.9,-21059
3.569,7184.9,-21065
3.5681,7180.9,-21073
3.5689,7187.2,-21081
3.5681,7182.8,-21068
3.5689,7181.1,-21052
3.5681,7191.9,-21047
3.568,7206.4,-21034
3.5689,7215.5,-21026
3.569,7206.1,-21023
3.569,7210.8,-21038
3.5681,7201.5,-21056
3.568,7192,-21065
3.568,7193,-21069
3.568,7204.8,-21059
3.568,7203.9,-21052
3.568,7200.8,-21046
3.568,7202.2,-21041
3.568,7198.6,-21034
3.568,7194.1,-21045
3.568,7189.8,-21044
3.568,7194.5,-21063
3.568,7192.4,-21074
3.568,7202.1,-21080
3.568,7203.3,-21081
3.568,7206.8,-21079
3.568,7186.7,-21075
3.568,7180.3,-21065
3.568,7163.7,-21059
3.568,7154.1,-21057
3.568,7183.4,-21062
3.568,7240.2,-21052
3.568,7295.2,-21049
3.568,7379.8,-21051
3.5671,7496.2,-21050
3.567,7676.4,-21059
3.5679,7829,-21063
3.568,7985.6,-21062
3.5671,8142.1,-21065
3.567,8370.4,-21056
3.567,8557.1,-21051
3.567,8723.1,-21039
3.567,8797.2,-21028
3.567,8797.5,-20987
3.567,8516.9,-20954
3.567,8054.2,-20952
3.567,7631.1,-20957
3.567,7185,-20946
3.567,6937.7,-20953
3.567,6752.2,-20963
3.567,6610,-20986
3.567,6541.2,-21009
3.567,6483.4,-21025
3.567,6517.4,-21033
3.567,6608.3,-21043
3.567,6724.4,-21049
3.567,6874.2,-21039
3.567,6988,-21039
3.567,7099.6,-21053
3.567,7175.2,-21055
3.567,7246.1,-21041
3.567,7288.5,-21035
3.5661,7302.6,-21027
3.5668,7315.4,-21032
3.567,7299,-21042
3.5662,7300.7,-21047
3.5668,7306.8,-21069
3.567,7314.3,-21080
3.5662,7310.1,-21095
3.566,7308.7,-21087
3.5668,7318.4,-21081
3.5662,7320.7,-21060
3.566,7319.8,-21047
3.566,7315.9,-21045
3.566,7311.9,-21046
3.566,7314.1,-21056
3.566,7326,-21062
3.566,7330.5,-21061
3.566,7344.2,-21056
3.566,7355,-21052
3.566,7355.4,-21045
3.566,7359.3,-21034
3.566,7351.4,-21029
3.566,7340.2,-21048
3.566,7346.8,-21072
3.566,7354.8,-21072
3.5652,7365.4,-21065
3.5658,7369.5,-21056
3.566,7374.1,-21053
3.566,7387.9,-21056
3.566,7384.2,-21052
3.5652,7386,-21069
3.565,7396.7,-21071
3.5658,7402.4,-21074
3.5652,7402.4,-21067
3.5658,7403.6,-21046
3.5652,7394.7,-21049
3.565,7404.1,-21059
3.565,7412.8,-21044
3.565,7416.8,-21042
3.565,7419.5,-21049
3.565,7416.3,-21065
3.565,7410.4,-21073
3.5658,7411.1,-21074
3.5652,7415.3,-21062
3.565,7413.8,-21042
3.565,7422,-21030
3.565,7436.9,-21049
3.565,7445.5,-21054
3.565,7448.4,-21062
3.565,7451.4,-21051
3.565,7461.8,-21045
3.565,7459.5,-21038
3.565,7453.2,-21040
3.565,7455.2,-21049
3.565,7458.8,-21061
3.565,7460.9,-21064
3.565,7460,-21058
3.5642,7456.2,-21037
3.5648,7473.4,-21034
3.565,7475.8,-21035
3.565,7480,-21043
3.565,7484.5,-21054
3.565,7489.7,-21052
3.5642,7486.2,-21051
3.5648,7486.5,-21047
3.5642,7495.7,-21040
3.564,7501.5,-21044
3.564,7513.3,-21047
3.564,7518.8,-21045
3.564,7528.6,-21045
3.564,7527.2,-21046
3.564,7532.6,-21049
3.564,7532.7,-21050
3.564,7538.2,-21053
3.564,7546.7,-21052
3.564,7558.7,-21053
3.564,7559.3,-21051
3.564,7564.3,-21040
3.564,7577.2,-21040
3.564,7586.4,-21038
3.564,7594.2,-21046
3.564,7596.1,-21057
3.564,7603.4,-21061
3.564,7601.2,-21079
3.564,7610,-21076
3.564,7615.6,-21076
3.564,7619.7,-21062
3.564,7619.3,-21040
3.564,7624.9,-21031
3.564,7643.3,-21035
3.564,7642.7,-21039
3.564,7652.3,-21043
3.564,7663.1,-21051
3.564,7663.8,-21059
3.564,7677.7,-21048
3.5632,7684.3,-21053
3.563,7683,-21051
3.563,7695.3,-21051
3.5638,7700.6,-21055
3.564,7701.9,-21058
3.5632,7706.8,-21067
3.563,7714.6,-21069
3.5638,7719.9,-21067
3.5632,7719.2,-21053
3.563,7719.9,-21046
3.5638,7730.5,-21047
3.5632,7724.1,-21055
3.563,7736.1,-21055
3.563,7743.1,-21060
3.563,7754.5,-21056
3.563,7752.2,-21049
3.563,7749.3,-21044
3.563,7753.9,-21040
3.563,7757.8,-21034
3.563,7743.3,-21042
3.563,7748.1,-21049
3.563,7753.4,-21046
3.563,7752.9,-21035
3.5622,7759,-21037
3.5628,7764.6,-21035
3.563,7767.6,-21029
3.563,7758.6,-21043
3.563,7749.5,-21059
3.5622,7738.3,-21073
3.562,7727.3,-21068
3.5628,7707.5,-21063
3.5622,7699.3,-21058
3.5628,7686.9,-21032
3.5622,7661.8,-21033
3.562,7646.4,-21030
3.5628,7637.1,-21022
3.563,7618.4,-21024
3.5622,7594.6,-21033
3.562,7580.7,-21038
3.562,7560.7,-21041
3.562,7537.8,-21047
3.562,7528.3,-21052
3.5612,7519.2,-21056
3.5618,7508,-21067
3.562,7495.4,-21068
3.562,7490.3,-21065
3.562,7475,-21057
3.562,7466.3,-21043
3.562,7449.6,-21038
3.562,7426.8,-21028
3.562,7417,-21049
3.562,7409.9,-21064
3.562,7408.8,-21062
3.5612,7399.3,-21061
3.561,7396.1,-21069
3.561,7387.1,-21072
3.561,7387.7,-21070
3.5618,7384.8,-21068
3.562,7374.2,-21074
3.5612,7366.4,-21050
3.561,7348.8,-21018
3.561,7356,-21035
3.561,7358.2,-21052
3.561,7362.9,-21057
3.561,7361.9,-21053
3.561,7373.9,-21038
3.561,7373.1,-21021
3.561,7367.2,-21031
3.561,7363.7,-21041
3.561,7363.6,-21048
3.561,7362,-21054
3.561,7358,-21054
3.561,7359.9,-21036
3.561,7362.6,-21037
3.561,7363,-21051
3.561,7364.8,-21051
3.561,7365.8,-21051
3.561,7366.9,-21043
3.561,7367.4,-21032
3.561,7366.8,-21015
3.561,7366.3,-21024
3.561,7369.7,-21037
3.5602,7372.5,-21044
3.56,7374,-21047
3.56,7372.8,-21050
3.5608,7377.8,-21052
3.5602,7376.6,-21052
3.56,7370.7,-21042
3.5608,7375.5,-21041
3.5602,7367.2,-21034
3.56,7365,-21023
3.56,7370,-21020
3.56,7380.8,-21032
3.56,7382.5,-21048
3.56,7381.6,-21044
3.56,7383.5,-21047
3.5593,7396.2,-21054
3.5598,7400.7,-21063
3.56,7391.8,-21070
3.56,7390.7,-21065
3.56,7384.1,-21055
3.56,7381.3,-21049
3.56,7387.6,-21043
3.56,7388.5,-21030
3.56,7389.8,-21031
3.5593,7393.1,-21050
3.559,7395.5,-21056
3.5598,7398.6,-21051
3.56,7393.6,-21049
3.56,7393.6,-21037
3.56,7389.3,-21022
3.5593,7387.6,-21016
3.559,7389.8,-21021
3.559,7390.7,-21037
3.559,7384.2,-21042
3.559,7394.1,-21051
3.559,7394.6,-21050
3.559,7397.7,-21040
3.559,7398,-21052
3.559,7386.6,-21057
3.559,7395.1,-21068
3.559,7387.9,-21069
3.559,7383.3,-21064
3.559,7384.1,-21047
3.559,7387.4,-21032
3.5583,7387.2,-21022
3.5587,7388,-21012
3.559,7390.6,-21010
3.559,7388.6,-21013
3.559,7393.5,-21024
3.559,7391.7,-21037
3.559,7390.8,-21068
3.559,7390.8,-21080
3.559,7391,-21094
3.559,7382.1,-21111
3.559,7383.3,-21097
3.559,7379.6,-21071
3.559,7378.5,-21049
3.559,7370.9,-21035
3.559,7373.2,-21019
3.559,7378.6,-20997
3.559,7380,-21017
3.5583,7373.4,-21022
3.558,7371.4,-21017
3.558,7368.1,-21029
3.558,7372.2,-21036
3.558,7374.8,-21045
3.558,7371.1,-21041
3.558,7370.6,-21026
3.558,7366,-21022
3.558,7364.9,-21032
3.5587,7357.1,-21030
3.5583,7348.1,-21042
3.558,7350.7,-21054
3.558,7346.8,-21073
3.558,7358.4,-21093
3.558,7366.7,-21104
3.558,7362.8,-21094
3.558,7364.5,-21080
3.558,7366.4,-21055
3.558,7370,-21042
3.558,7360.7,-21037
3.558,7349.7,-21046
3.558,7351.2,-21065
3.558,7358.5,-21054
3.5573,7353.4,-21049
3.557,7348.7,-21030
3.557,7353.3,-21017
3.557,7364,-21018
3.5577,7364.1,-21022
3.5573,7366.9,-21030
3.557,7361.8,-21045
3.557,7356.4,-21046
3.557,7349.5,-21050
3.557,7344.8,-21063
3.557,7348.8,-21066
3.557,7353.3,-21088
3.557,7354.7,-21092
3.557,7363.2,-21099
3.557,7374,-21117
3.557,7378.1,-21118
3.557,7382.6,-21111
3.557,7378.7,-21072
3.557,7362.8,-21048
3.557,7373.7,-21020
3.557,7389.3,-21017
3.5563,7384.2,-21024
3.5567,7398.9,-21026
3.557,7430,-21050
3.557,7451.9,-21031
3.557,7474.6,-21025
3.557,7466.2,-21038
3.557,7468.6,-21057
3.557,7458.9,-21076
3.557,7447,-21108
3.557,7455.7,-21136
3.5563,7465.2,-21133
3.556,7482.4,-21122
3.556,7509.3,-21123
3.556,7519.2,-21068
3.556,7516.8,-21014
3.556,7526.2,-20979
3.556,7540.8,-20955
3.556,7573.9,-20960
3.556,7602.4,-20994
3.556,7604,-21021
3.556,7592.3,-21079
3.556,7591.4,-21128
3.556,7593.6,-21132
3.556,7594.7,-21115
3.556,7575.3,-21094
3.556,7559.2,-21023
3.556,7515.1,-20966
3.556,7458.8,-20951
3.556,7410.9,-20969
3.556,7411.6,-21013
3.556,7399.5,-21015
3.556,7385,-21036
3.556,7396.3,-21054
3.556,7402.5,-21036
3.556,7398.3,-21056
3.556,7392.4,-21098
3.5553,7369.5,-21114
3.555,7348.9,-21095
3.555,7348.8,-21086
3.555,7327.4,-21112
3.555,7318,-21101
3.5557,7316.6,-21093
3.5553,7299.7,-21117
3.555,7315.3,-21124
3.555,7316.6,-21202
3.5557,7309.8,-21207
3.5553,7309.5,-21175
3.555,7317.1,-21154
3.555,7318.1,-21115
3.555,7321.6,-21074
3.555,7335.2,-21093
3.555,7331.6,-21060
3.555,7319.4,-21023
3.555,7319,-21013
3.555,7318.8,-20995
3.555,7312.7,-21032
3.555,7317.6,-21064
3.555,7307.7,-21072
3.555,7286.4,-21093
3.555,7295.4,-21137
3.555,7301.1,-21109
3.555,7298.3,-21048
3.5543,7299.3,-21026
3.5547,7306.3,-21007
3.555,7327,-21048
3.5543,7333.1,-21143
3.554,7320.4,-21180
3.5547,7311,-21137
3.5543,7318.4,-21092
3.554,7302.1,-21069
3.5547,7302.8,-21171
3.5543,7325.7,-21278
3.554,7323.2,-21376
3.5547,7351,-21397
3.5543,7357.1,-21296
3.554,7340.5,-21183
3.554,7333.7,-21126
3.554,7356.1,-21130
3.554,7354.7,-21092
3.554,7335.6,-21038
3.554,7330.6,-21063
3.554,7306,-21066
3.554,7290.1,-20992
3.554,7275,-20921
3.554,7269.8,-20870
3.554,7296.6,-20814
3.554,7361.7,-20814
3.554,7428.1,-20842
3.554,7490.5,-20879
3.554,7615.7,-20920
3.554,7795,-20950
3.554,7951.7,-20978
3.554,8103.8,-21015
3.554,8302.1,-21003
3.5533,8525.6,-20980
3.553,8715.1,-20987
3.553,8838,-20984
3.553,8885.7,-21026
3.553,8826.2,-21024
3.553,8469,-21001
3.553,8020.6,-21022
3.553,7627.1,-21004
3.553,7271.3,-20993
3.553,7098.4,-21016
3.553,6936,-21032
3.553,6799.4,-21151
3.5537,6718.2,-21158
3.5533,6676,-21131
3.553,6704.2,-21104
3.553,6787.4,-21044
3.553,6894.9,-20987
3.553,7007.2,-20930
3.553,7100.6,-20903
3.553,7197.5,-20907
3.553,7285.2,-20972
3.553,7350.9,-20983
3.553,7388.1,-20984
3.553,7426.5,-20976
3.553,7433.3,-20931
3.553,7433.6,-20966
3.553,7425.6,-20986
3.5523,7427,-20989
3.5527,7433.9,-20999
3.553,7431.9,-21029
3.553,7444.9,-21060
3.5523,7448.7,-21055
3.5527,7449.3,-21040
3.5523,7460.3,-21022
3.5527,7445.8,-21031
3.553,7448.6,-21079
3.5523,7461.5,-21127
3.552,7454.7,-21121
3.552,7459,-21142
3.552,7458.9,-21103
3.552,7466.2,-21056
3.552,7461.9,-21070
3.552,7478.7,-21142
3.552,7481.9,-21215
3.552,7487.9,-21261
3.552,7497.6,-21248
3.552,7509.5,-21250
3.552,7501.3,-21155
3.552,7481.6,-21019
3.552,7480.7,-20919
3.552,7483.7,-20866
3.552,7476.1,-20844
3.552,7476.4,-20843
3.552,7488.1,-20914
3.552,7505.1,-21030
3.552,7520.2,-21114
3.552,7521,-21153
3.552,7524.9,-21152
3.552,7513,-21127
3.552,7514.2,-21034
3.5513,7526.1,-20916
3.551,7532.6,-20901
3.551,7542.7,-21012
3.551,7545.3,-21118
3.551,7538.4,-21137
3.551,7538.4,-21116
3.5517,7544.5,-21080
3.5513,7528,-20987
3.551,7535.4,-20977
3.551,7527.9,-20954
3.551,7526.5,-20937
3.551,7530.9,-20973
3.551,7542.5,-20964
3.551,7556.4,-20957
3.551,7553.5,-20975
3.551,7551,-20978
3.551,7565.9,-21014
3.551,7562.4,-21029
3.551,7570.7,-21025
3.551,7589.3,-21034
3.551,7590.5,-21076
3.551,7594.6,-21088
3.551,7602.2,-21127
3.551,7605.2,-21162
3.551,7606.7,-21157
3.551,7602.5,-21112
3.551,7614.7,-21076
3.551,7618.4,-21001
3.551,7631.1,-20900
3.5503,7620.3,-20926
3.5507,7612,-20945
3.5503,7623.1,-20914
3.5507,7634.6,-20979
3.551,7645.3,-21026
3.551,7656.8,-21083
3.551,7653.6,-21120
3.551,7665.5,-21138
3.5503,7657.4,-21169
3.5507,7667.3,-21217
3.5503,7673.1,-21233
3.55,7673.6,-21237
3.55,7681.5,-21154
3.5507,7698.5,-21041
3.5503,7717.4,-20927
3.55,7713.6,-20849
3.5507,7711,-20900
3.5503,7719.1,-20975
3.55,7711.1,-21079
3.55,7715.2,-21121
3.55,7720.7,-21070
3.55,7725.7,-20996
3.55,7741.5,-20968
3.55,7758.2,-21004
3.55,7761.9,-21017
3.55,7773.4,-21117
3.55,7771.9,-21184
3.55,7778.1,-21145
3.55,7775.1,-21037
3.55,7790.1,-20916
3.5493,7802.9,-20886
3.5497,7787,-20836
3.55,7793.6,-20860
3.5493,7802.2,-20922
3.5497,7816.5,-21011
3.55,7818.4,-21058
3.55,7823.6,-21052
3.55,7816,-21081
3.55,7826.9,-21108
3.5493,7822.8,-21092
3.549,7818.1,-21054
3.5497,7826.5,-21086
3.5493,7830,-21102
3.549,7847.4,-21132
3.549,7853.2,-21225
3.549,7851,-21225
3.549,7847.4,-21093
3.549,7836.9,-20964
3.549,7852.3,-20860
3.549,7857.5,-20805
3.549,7863.1,-20815
3.549,7851.4,-20901
3.549,7834.4,-20970
3.549,7828.7,-21008
3.549,7835,-21061
3.549,7834.7,-21115
3.549,7824.5,-21087
3.549,7813.1,-21029
3.549,7799.8,-20976
3.549,7782.7,-20968
3.549,7759.5,-20997
3.549,7753.1,-21076
3.549,7739.5,-21082
3.549,7719.3,-21018
3.549,7707.5,-20951
3.549,7698.6,-20902
3.5483,7680.9,-20939
3.5487,7654.1,-20980
3.549,7633.3,-21004
3.549,7618.5,-21054
3.549,7604.8,-21064
3.5483,7585.8,-21108
3.548,7579.5,-21155
3.548,7561.1,-21094
3.548,7542.3,-21021
3.548,7533.3,-20991
3.548,7519.6,-20969
3.548,7507.5,-20962
3.548,7495.3,-20956
3.548,7503.8,-20954
3.548,7497.3,-20929
3.548,7485.8,-20922
3.548,7481.5,-20951
3.548,7478.4,-21003
3.548,7469,-21055
3.548,7464.5,-21102
3.548,7468.3,-21121
3.548,7462.2,-21109
3.548,7455.1,-21068
3.548,7444.7,-21012
3.548,7436.8,-20987
3.548,7453.4,-20990
3.548,7445.2,-20977
3.548,7452.2,-20952
3.5473,7448.7,-20953
3.5477,7450.6,-20984
3.5473,7446.7,-21004
3.547,7441.3,-20999
3.547,7447.1,-21007
3.547,7445.2,-21013
3.547,7438.5,-21015
3.547,7444.9,-21016
3.547,7434.8,-20998
3.547,7437.5,-21014
3.547,7445.6,-21038
3.547,7437.3,-21035
3.547,7444.7,-21018
3.547,7443.8,-21010
3.547,7446,-21000
3.547,7444,-20991
3.547,7440.2,-21000
3.547,7443.3,-21014
3.547,7444.6,-21020
3.547,7454.5,-21020
3.547,7457.8,-21019
3.5463,7453.7,-21020
3.5467,7458.8,-21018
3.5463,7455.9,-21013
3.5467,7454.7,-21018
3.547,7451.5,-21020
3.547,7446.5,-21023
3.547,7449.4,-21026
3.5463,7448,-21024
3.5467,7452.7,-21031
3.5463,7447.1,-21032
3.546,7446,-21024
3.546,7449.2,-21020
3.5467,7457.1,-21023
3.5463,7455.3,-21022
3.546,7454.5,-21023
3.546,7463.4,-21025
3.546,7458,-21028
3.546,7457.2,-21030
3.546,7456.8,-21031
3.546,7462.2,-21035
3.546,7464.1,-21033
3.546,7463.1,-21027
3.546,7464,-21023
3.546,7447.4,-21023
3.546,7450.3,-21026
3.546,7445.2,-21028
3.546,7448.4,-21029
3.546,7443,-21031
3.546,7443.2,-21042
3.5453,7447.9,-21035
3.545,7450.8,-21027
3.5457,7461.2,-21025
3.5453,7460.8,-21017
3.545,7455.1,-21020
3.545,7455.8,-21029
3.545,7446.6,-21029
3.545,7434.5,-21035
3.545,7436,-21034
3.545,7435.2,-21031
3.545,7435.4,-21033
3.545,7436.9,-21032
3.545,7433.9,-21027
3.545,7435.5,-21023
3.5457,7432.1,-21018
3.5453,7429.1,-21022
3.545,7425.3,-21025
3.545,7420.7,-21033
3.545,7417.1,-21045
3.545,7415.4,-21047
3.545,7417.8,-21045
3.5443,7413.7,-21036
3.5447,7408.9,-21026
3.545,7410.3,-21016
3.5443,7416,-21021
3.5447,7409.8,-21028
3.5443,7405.6,-21046
3.5447,7411.3,-21065
3.545,7410.7,-21076
3.5443,7404.7,-21069
3.544,7401.8,-21037
3.544,7400.8,-21015
3.544,7402.3,-20998
3.544,7406.2,-21000
3.544,7399.1,-21011
3.544,7397.5,-21017
3.544,7398.1,-21018
3.544,7389.9,-21023
3.544,7379.5,-21030
3.544,7375.6,-21028
3.544,7380.8,-21026
3.5433,7376.9,-21031
3.5437,7375.9,-21035
3.544,7379.1,-21039
3.544,7371,-21033
3.544,7365.4,-21025
3.544,7366.5,-21012
3.544,7368,-21029
3.544,7378.1,-21055
3.544,7373.7,-21040
3.5433,7374.1,-21020
3.543,7360.5,-21015
3.543,7362.8,-21012
3.543,7359.3,-21026
3.543,7358,-21026
3.543,7355.6,-21028
3.5437,7346.6,-21049
3.5433,7346.1,-21060
3.543,7349,-21038
3.543,7339.1,-21014
3.543,7340.1,-21007
3.543,7342.1,-21016
3.543,7345.5,-21022
3.543,7348.5,-21053
3.543,7354.6,-21085
3.543,7359.5,-21104
3.543,7369.2,-21108
3.543,7361.8,-21072
3.543,7358.3,-21037
3.5423,7364.7,-21020
3.5427,7374.3,-21050
3.543,7376.1,-21059
3.5423,7378,-21077
3.5427,7386.9,-21050
3.5423,7407.5,-21012
3.542,7436.3,-20971
3.5427,7437,-20933
3.5423,7436.4,-20944
3.542,7446.1,-20957
3.542,7437.4,-20985
3.542,7424.9,-21029
3.542,7442.1,-21086
3.542,7439.6,-21126
3.542,7447.9,-21136
3.542,7460.2,-21105
3.542,7486.2,-21029
3.542,7502.3,-21012
3.542,7504.1,-21030
3.542,7517.9,-21033
3.542,7562.3,-21026
3.542,7577.4,-20999
3.542,7566.6,-20956
3.542,7546.2,-20927
3.542,7548.1,-20927
3.542,7548.3,-20952
3.5413,7539.2,-20954
3.5417,7533.9,-20959
3.542,7518.1,-20972
3.5413,7480.2,-20981
3.541,7421.3,-20995
3.541,7383.8,-21003
3.541,7363.4,-21009
3.541,7351.4,-21008
3.541,7342.6,-20999
3.541,7337.5,-20997
3.541,7332.9,-20999
3.541,7327.2,-20998
3.541,7317.3,-20995
3.541,7307.6,-21001
3.541,7301.3,-21003
3.541,7293.5,-21014
3.541,7272.1,-21015
3.541,7271.8,-21063
3.541,7271.5,-21088
3.541,7270.5,-21122
3.541,7275.3,-21130
3.541,7271.7,-21096
3.541,7266.3,-21043
3.5403,7267.9,-21003
3.5407,7265.6,-20959
3.5403,7260.6,-20940
3.54,7249.8,-20970
3.54,7262.1,-21014
3.54,7259.6,-21055
3.54,7251.7,-21079
3.54,7248.7,-21061
3.54,7248.4,-21036
3.54,7240.4,-21017
3.54,7233.8,-20970
3.54,7240.7,-20952
3.54,7241.5,-20962
3.54,7240.1,-20981
3.54,7237.8,-20994
3.54,7235.5,-21009
3.54,7235.8,-21022
3.54,7228,-21031
3.54,7237.2,-21023
3.54,7236.9,-21014
3.54,7232.3,-21002
3.54,7235.4,-20994
3.54,7234.6,-20993
3.54,7223.1,-21004
3.5393,7230.2,-21010
3.5397,7227.4,-21014
3.5393,7226.4,-21008
3.539,7238.4,-21006
3.539,7240.9,-21004
3.539,7239.8,-21025
3.539,7243.2,-21045
3.539,7242.5,-21032
3.539,7238.5,-21019
3.539,7234.4,-21030
3.539,7240.4,-21030
3.539,7225,-21017
3.539,7215.8,-21020
3.539,7195.6,-21029
3.539,7191.4,-21022
3.539,7212.3,-21014
3.539,7259.5,-21014
3.539,7317.7,-21035
3.539,7394.9,-21050
3.539,7517.6,-21060
3.539,7689.7,-21132
3.539,7852.3,-21222
3.5383,7991.6,-21248
3.538,8168.9,-21190
3.5387,8397.3,-21110
3.539,8589.4,-20965
3.539,8722.9,-20851
3.539,8786.1,-20816
3.5383,8768.5,-20821
3.538,8409.5,-20865
3.538,7965.6,-20859
3.538,7532.3,-20864
3.538,7146.6,-20878
3.538,6945.1,-20906
3.538,6800.9,-20919
3.538,6679.3,-20942
3.538,6601.1,-20945
3.538,6552.1,-20945
3.538,6549.8,-20933
3.538,6595.8,-20943
3.538,6676.7,-20969
3.538,6778.7,-20997
3.538,6900.3,-21005
3.538,6995.4,-21007
3.5373,7088.7,-21019
3.5377,7164.2,-21018
3.538,7224.8,-21011
3.538,7259.8,-21025
3.538,7286.1,-21020
3.5373,7293,-21015
3.537,7283.6,-21021
3.537,7284,-21012
3.537,7284.4,-21000
3.537,7291.5,-21017
3.537,7303.1,-21026
3.537,7302.4,-21010
3.537,7293.8,-21010
3.537,7296.3,-21004
3.537,7302,-20989
3.537,7304.2,-20982
3.537,7296.4,-20983
3.537,7305.6,-21000
3.537,7303.8,-21001
3.537,7307.7,-20998
3.537,7311.8,-21009
3.537,7314.7,-21006
3.537,7318.8,-21005
3.537,7321.6,-21002
3.537,7325.9,-21002
3.537,7331.3,-21010
3.537,7329.9,-21019
3.537,7328.9,-21042
3.5363,7335.2,-21046
3.536,7331.6,-21046
3.536,7331.9,-21039
3.536,7349.9,-21032
3.536,7353.6,-21073
3.536,7352.5,-21078
3.536,7348.1,-21077
3.536,7346.3,-21035
3.536,7347.8,-21004
3.536,7354.9,-20976
3.536,7341.8,-20983
3.536,7353.9,-21014
3.536,7358.4,-21007
3.536,7359.9,-21012
3.536,7366.9,-21014
3.536,7362.9,-21009
3.536,7361,-21037
3.536,7369.9,-21057
3.536,7374.2,-21058
3.536,7373.6,-21056
3.536,7377.4,-21036
3.536,7380.8,-21016
3.536,7384,-21001
3.536,7382,-20980
3.5353,7385.7,-20972
3.5357,7394.2,-20996
3.536,7395.1,-21014
3.536,7392.7,-21011
3.5353,7394.4,-20995
3.535,7392.1,-20975
3.535,7401.9,-20955
3.535,7412.9,-20957
3.535,7407.8,-20957
3.535,7411,-20971
3.535,7425.4,-20983
3.535,7426.9,-20992
3.535,7424.5,-21003
3.535,7427.7,-21034
3.535,7434.5,-21060
3.535,7431.6,-21073
3.535,7431.5,-21074
3.535,7434.6,-21034
3.535,7443.3,-21017
3.535,7447.2,-21000
3.535,7454.8,-20980
3.535,7466.1,-21004
3.535,7456.6,-21002
3.535,7459.8,-20973
3.535,7473.6,-20994
3.535,7473.4,-20998
3.5343,7475,-20999
3.534,7480.7,-20989
3.534,7491.2,-20975
3.534,7492.1,-20988
3.534,7505.9,-20995
3.534,7510.7,-20998
3.534,7518.7,-21019
3.5347,7525,-21057
3.5343,7518.7,-21053
3.534,7528.3,-21041
3.534,7533.9,-21032
3.534,7543.7,-21000
3.534,7542.8,-20994
3.534,7543.6,-20986
3.534,7548.3,-20988
3.534,7562.7,-20985
3.534,7569.9,-20984
3.534,7569.4,-20989
3.534,7580.6,-20976
3.534,7591.4,-20976
3.534,7588.1,-20970
3.534,7586.8,-20976
3.534,7596.6,-21018
3.534,7598.7,-21027
3.5333,7611.8,-21041
3.533,7616.6,-21050
3.533,7616.6,-21036
3.5337,7625.7,-21037
3.5332,7639,-21024
3.533,7643.3,-21067
3.5337,7641.1,-21080
3.534,7633.4,-21081
3.5332,7643.3,-21086
3.533,7648.1,-21063
3.533,7647.2,-21043
3.533,7654.7,-21007
3.533,7653.9,-20982
3.533,7653.1,-20943
3.533,7650.7,-20950
3.533,7649.1,-20961
3.533,7652.7,-20940
3.533,7652.2,-20944
3.533,7659.9,-20951
3.5322,7656.3,-20953
3.5328,7645.6,-20942
3.533,7623.7,-20955
3.5322,7613.8,-20975
3.5328,7605.7,-20969
3.533,7602.6,-20966
3.533,7596.2,-20981
3.533,7590.6,-20986
3.533,7571.5,-20991
3.5322,7547.1,-21001
3.532,7523.2,-21009
3.532,7510.6,-21014
3.532,7499.9,-20999
3.532,7496.8,-20985
3.532,7483.1,-20990
3.5328,7469.7,-20979
3.5322,7433.4,-20981
3.532,7404.6,-20981
3.532,7385.8,-20986
3.532,7370.4,-20991
3.532,7351.6,-21031
3.532,7348.2,-21039
3.532,7339.6,-21036
3.532,7324.2,-21014
3.532,7314.6,-21002
3.532,7306.5,-20977
3.532,7286.7,-20968
3.532,7274.3,-21002
3.532,7270.5,-21034
3.532,7264.6,-21063
3.532,7253.4,-21079
3.532,7253.1,-21048
3.5313,7247.7,-21007
3.531,7249.3,-20982
3.5318,7250.6,-21006
3.532,7247.5,-21025
3.5313,7243.7,-21034
3.531,7238.1,-21033
3.5318,7232.6,-21007
3.5313,7230.6,-21046
3.531,7230.9,-21049
3.531,7229.9,-21050
3.531,7235.6,-21044
3.531,7228.8,-21005
3.531,7240.4,-20976
3.531,7235.5,-21033
3.531,7239.6,-21090
3.531,7232.2,-21073
3.531,7223.1,-21030
3.531,7222.1,-20991
3.531,7215.5,-20935
3.531,7216.3,-20892
3.531,7217.7,-20900
3.5303,7220.6,-20937
3.5307,7224.6,-20955
3.531,7234,-20955
3.531,7223.2,-20974
3.531,7225.5,-20980
3.531,7225.8,-20998
3.531,7229.1,-21016
3.531,7235.5,-21050
3.5303,7235.6,-21047
3.53,7227.3,-21038
3.53,7243.3,-21040
3.53,7245.2,-21037
3.53,7244.9,-21010
3.53,7249.4,-21029
3.53,7251.4,-21001
3.53,7247.8,-20960
3.53,7236.5,-20925
3.53,7242.1,-20924
3.53,7239.8,-20958
3.53,7241.6,-20997
3.53,7254.2,-21049
3.53,7247.5,-21034
3.53,7247.8,-21017
3.53,7238.5,-21025
3.53,7234.5,-21031
3.53,7236.7,-21019
3.53,7242.4,-21041
3.53,7249.7,-21060
3.53,7242.9,-21067
3.53,7243.9,-21028
3.53,7245.5,-21027
3.53,7250.6,-21005
3.53,7257.3,-20954
3.53,7261,-20926
3.53,7267.1,-20991
3.5292,7252.2,-21089
3.529,7244.1,-21078
3.5298,7238.5,-21039
3.5292,7242.6,-21004
3.529,7240.7,-20958
3.5298,7240.4,-20898
3.5292,7243.8,-20911
3.529,7250.7,-20993
3.529,7258.5,-21028
3.529,7251.4,-21048
3.529,7253,-21025
3.529,7254.1,-20986
3.529,7253.7,-20977
3.529,7238.9,-20981
3.5298,7243.2,-21061
3.5292,7245,-21128
3.5282,7258.5,-21139
3.5288,7261.6,-21130
3.529,7255.2,-21120
3.529,7251.6,-21088
3.529,7241.6,-21030
3.529,7240.6,-21033
3.529,7238.1,-21034
3.529,7231.1,-21026
3.529,7210.4,-21042
3.529,7217.7,-21055
3.529,7216.7,-21021
3.529,7222.1,-21053
3.529,7228.5,-21058
3.529,7242.3,-21068
3.5282,7234.8,-21008
3.528,7225.9,-20986
3.528,7213.7,-20928
3.5288,7213.5,-20968
3.5282,7219.1,-21037
3.528,7239,-20987
3.5288,7229.4,-20921
3.529,7220.8,-20964
3.5282,7218.9,-20976
3.528,7213.8,-21003
3.528,7203.2,-20985
3.528,7207.9,-20953
3.528,7198.4,-20947
3.528,7208.8,-20950
3.528,7204.4,-21007
3.528,7210.9,-21013
3.528,7204.1,-20984
3.528,7206.9,-20953
3.528,7204.4,-20930
3.528,7210.7,-20958
3.528,7198.9,-21067
3.528,7202.2,-21137
3.528,7207.4,-21115
3.528,7227.9,-21108
3.5272,7214.7,-21105
3.5278,7201.2,-21034
3.528,7208,-21021
3.5272,7217.5,-21004
3.527,7235.8,-20993
3.527,7258.7,-20910
3.5278,7252.9,-20820
3.5272,7229.4,-20852
3.527,7203.3,-20892
3.527,7197.6,-20962
3.527,7209.3,-20968
3.527,7233.8,-21024
3.527,7241.2,-21061
3.527,7247.5,-21053
3.527,7254.6,-21034
3.5278,7262,-21047
3.5272,7263.3,-21005
3.527,7277.2,-21008
3.527,7290,-20947
3.527,7286.2,-20942
3.527,7284.6,-20941
3.527,7273.4,-20910
3.527,7274,-20890
3.527,7288.7,-20850
3.5262,7291,-20902
3.5268,7305.9,-20936
3.527,7331.3,-20926
3.527,7364.4,-20929
3.527,7373.1,-20952
3.527,7369.2,-20969
3.527,7402.5,-20983
3.527,7429.1,-21006
3.5262,7434.4,-21039
3.5268,7444.2,-21061
3.5262,7447.7,-21051
3.526,7455.9,-21020
3.526,7463.7,-20984
3.5268,7453.5,-20984
3.5262,7441.5,-20979
3.5268,7405.7,-21019
3.527,7352.4,-21040
3.5262,7291.7,-20992
3.526,7255.9,-21025
3.526,7240.8,-21047
3.526,7237.9,-21066
3.526,7252,-21050
3.526,7263.8,-21024
3.526,7266.6,-21000
3.526,7273.7,-20861
3.526,7242.9,-20805
3.526,7199.1,-20851
3.526,7168.9,-20905
3.526,7160.9,-20968
3.526,7170.4,-20989
3.526,7190.9,-20976
3.526,7203.8,-20972
3.526,7178.5,-20960
3.526,7141.3,-20954
3.526,7151,-20974
3.526,7168.5,-21005
3.526,7172.1,-21000
3.5252,7159.9,-20995
3.5258,7159.8,-21007
3.5252,7143.7,-20979
3.5258,7139.9,-20986
3.5252,7146.8,-21009
3.5258,7165.9,-21020
3.5252,7173.5,-20995
3.525,7175.9,-20975
3.5258,7183,-20964
3.5252,7174.9,-20983
3.5258,7165.2,-20997
3.5252,7143,-21025
3.525,7136.6,-21035
3.525,7144.6,-21021
3.525,7149.9,-21019
3.525,7154.8,-21010
3.525,7156.5,-20995
3.525,7163,-20979
3.525,7168.8,-20982
3.525,7167.7,-20999
3.525,7159.1,-21027
3.525,7148.3,-21018
3.525,7150.5,-21046
3.525,7159,-21067
3.5242,7161.9,-21077
3.5248,7162.9,-21021
3.525,7169.3,-20977
3.525,7178.1,-20956
3.525,7183.2,-20968
3.525,7191.3,-20986
3.525,7189,-21005
3.5242,7166.4,-21003
3.524,7167.5,-21027
3.524,7166.5,-21049
3.524,7159.9,-21048
3.524,7144,-21048
3.524,7142.2,-21025
3.524,7120.1,-21008
3.524,7141.3,-20977
3.524,7210.4,-20994
3.524,7265.5,-21003
3.524,7356.9,-21015
3.524,7492.6,-21064
3.524,7623.6,-21090
3.524,7799.3,-21093
3.524,7950.4,-21093
3.524,8133.3,-21064
3.524,8376.5,-21007
3.524,8569.7,-20969
3.524,8686.7,-20986
3.524,8754.7,-20994
3.524,8726.7,-21050
3.524,8392.5,-21024
3.524,7973.4,-20987
3.524,7536.4,-21059
3.524,7121.5,-21045
3.524,6900.4,-20977
3.524,6802.9,-20943
3.524,6664.8,-20853
3.524,6584.2,-20845
3.524,6546.2,-20850
3.524,6554.5,-20899
3.524,6586.6,-20909
3.524,6645.2,-20919
3.5232,6714.5,-20993
3.5238,6795.9,-21046
3.5232,6877.9,-21067
3.523,6988.9,-21052
3.5238,7060.5,-21005
3.524,7123.7,-20948
3.524,7179.4,-20990
3.524,7224.1,-20992
3.5232,7248.1,-20980
3.523,7269,-21028
3.523,7284.3,-21051
3.523,7274.3,-21020
3.523,7259.3,-21006
3.523,7264.9,-21006
3.523,7271,-20991
3.523,7246.4,-20995
3.523,7274.7,-21072
3.523,7269.6,-21136
3.523,7276,-21155
3.523,7278.9,-21116
3.523,7290.4,-21028
3.523,7294.6,-20968
3.523,7286.8,-21006
3.523,7292.3,-21078
3.523,7283.2,-21063
3.523,7301.2,-21032
3.523,7290.8,-20935
3.523,7299.8,-20863
3.523,7306.1,-20888
3.523,7305.4,-20947
3.523,7310.8,-20992
3.5222,7315,-21016
3.5228,7355.4,-21144
3.523,7354.5,-21231
3.5222,7344.3,-21223
3.5228,7334.4,-21141
3.5222,7337.8,-21044
3.522,7339.9,-20922
3.522,7356.6,-20839
3.5228,7380.4,-20893
3.523,7381.1,-20963
3.523,7362.8,-20995
3.5222,7335.6,-20957
3.5228,7320.8,-20936
3.5222,7341.1,-20902
3.5228,7366.9,-20925
3.5222,7376.7,-20953
3.522,7388.7,-20958
3.5228,7408.6,-20963
3.5222,7396.8,-20969
3.522,7385.6,-20973
3.522,7388.6,-21026
3.522,7404.9,-21041
3.522,7420.7,-21018
3.522,7403.8,-20993
3.522,7392.6,-20987
3.522,7404.1,-21020
3.522,7411,-21040
3.522,7405.9,-21020
3.522,7411.1,-21024
3.522,7406.2,-21049
3.522,7404.8,-21030
3.522,7408.6,-21020
3.522,7423.2,-21027
3.522,7414.3,-20996
3.522,7424,-21009
3.522,7442.6,-21047
3.522,7453.2,-21077
3.522,7458.5,-21075
3.522,7458.8,-21030
3.522,7458.8,-20995
3.522,7453,-20984
3.522,7464.9,-20979
3.522,7480.3,-21006
3.522,7470,-21048
3.5212,7455.2,-21137
3.5218,7453.7,-21197
3.522,7465.1,-21181
3.522,7483.3,-21159
3.5212,7502.5,-21132
3.5218,7500.3,-21076
3.5212,7507.9,-20970
3.521,7516,-20908
3.521,7511.7,-20858
3.5218,7513.6,-20842
3.5212,7527.8,-20870
3.521,7530.3,-20916
3.521,7544.7,-20996
3.521,7551.6,-21074
3.521,7545.8,-21085
3.521,7558.7,-21070
3.521,7561.5,-21052
3.521,7561.8,-21002
3.5218,7576.7,-20987
3.5212,7592.4,-21013
3.521,7605.7,-21041
3.521,7600.6,-21041
3.521,7593.2,-21051
3.521,7592.8,-21025
3.521,7605.8,-21046
3.521,7628,-21129
3.521,7629.5,-21110
3.521,7621.1,-21053
3.521,7621.2,-20998
3.521,7623.1,-20940
3.521,7646.2,-20901
3.521,7645.6,-20904
3.521,7640.9,-20945
3.521,7643.1,-20940
3.521,7647,-20982
3.521,7651.3,-21020
3.521,7663.5,-20997
3.521,7673.8,-20971
3.521,7675,-20957
3.521,7678.4,-20993
3.521,7668,-21020
3.521,7658.7,-21018
3.521,7686.5,-21059
3.521,7700.6,-21079
3.521,7692.8,-21107
3.521,7675.4,-21129
3.521,7661.8,-21103
3.521,7657.5,-20992
3.521,7668.1,-20948
3.521,7662.9,-20938
3.521,7654.1,-20926
3.521,7649.1,-21012
3.5202,7646.6,-21054
3.5208,7635.2,-21089
3.5202,7628.6,-21088
3.52,7601.8,-21110
3.5208,7594.9,-21070
3.521,7588.7,-20971
3.5202,7569,-20936
3.5208,7554.2,-20945
3.5202,7532,-20933
3.5208,7512,-20954
3.521,7510,-20986
3.5202,7497.1,-21029
3.52,7470.5,-21032
3.52,7434.6,-21002
3.5208,7421,-20991
3.5202,7411.3,-20990
3.52,7414.1,-20999
3.52,7409.8,-21022
3.52,7392.5,-21055
3.52,7381,-21106
3.5208,7348.1,-21180
3.5202,7339,-21158
3.52,7332.8,-21152
3.5208,7313.4,-21131
3.5202,7306.6,-21027
3.52,7305.3,-20941
3.52,7310.7,-20875
3.52,7316.8,-20879
3.52,7304.8,-20886
3.52,7292,-20879
3.52,7254.4,-20973
3.52,7256.8,-21025
3.52,7275.3,-21029
3.52,7270.2,-21019
3.52,7278.9,-21020
3.52,7285.8,-21017
3.52,7271.1,-20991
3.52,7277.4,-21021
3.52,7288.8,-21082
3.52,7283,-21030
3.52,7276.8,-21023
3.52,7280.6,-20976
3.52,7264.1,-20911
3.52,7267.4,-20956
3.52,7253,-21030
3.52,7243.3,-21123
3.52,7259.1,-21174
3.52,7277.4,-21169
3.52,7288.6,-21090
3.52,7287.1,-21003
3.52,7269.9,-20955
3.52,7255,-20881
3.52,7259.5,-20908
3.52,7268.1,-20973
3.52,7278.4,-20991
3.52,7265.8,-20950
3.52,7274.4,-20963
3.52,7278.6,-20964
3.52,7271.7,-20966
3.52,7263.6,-20979
3.52,7276.4,-20998
3.52,7271.6,-21012
3.52,7281.7,-21023
3.52,7294.5,-21010
3.52,7298.9,-21006
3.52,7299.4,-20999
3.52,7285.7,-21051
3.52,7291,-21092
3.52,7291.5,-21045
3.52,7282,-21002
3.52,7274.9,-21001
3.52,7275.3,-21041
3.52,7268.7,-21028
3.52,7283.2,-21046
3.52,7277.8,-21072
3.52,7280.1,-21098
3.52,7292.2,-21131
3.52,7282.9,-21138
3.52,7290.7,-21095
3.52,7296.8,-21034
3.52,7305.1,-20986
3.52,7315.9,-20953
3.52,7322,-20965
3.52,7309.2,-20985
3.52,7280.1,-20957
3.52,7279,-20955
3.52,7281.3,-20946
3.52,7302.7,-20970
3.52,7292.7,-21046
3.52,7260.6,-21053
3.52,7265.3,-21058
3.52,7282.7,-21035
3.52,7272.8,-21024
3.52,7278.6,-20976
3.52,7282.3,-20969
3.52,7290.6,-21008
3.52,7274,-21029
3.52,7282.4,-21102
3.52,7289.2,-21090
3.52,7271.3,-21058
3.52,7270.7,-21024
3.52,7265.2,-20977
3.52,7284.4,-20971
3.52,7296.5,-20966
3.52,7292.8,-20970
3.52,7293.4,-20986
3.52,7265.4,-20985
3.52,7244.2,-20961
3.52,7263.6,-20959
3.5192,7283.5,-20983
3.5198,7282,-20995
3.52,7288.2,-21008
3.52,7281.6,-20999
3.52,7263.9,-20991
3.52,7249,-20971
3.52,7242.2,-20997
3.52,7240.2,-21035
3.52,7244.6,-21039
3.52,7257.4,-21027
3.52,7275.4,-21013
3.52,7250.4,-21004
3.5208,7238.9,-21007
3.5202,7240.5,-21009
3.52,7252.3,-21008
3.52,7268.5,-21006
3.52,7273.6,-21012
3.52,7270.6,-20991
3.52,7262.1,-21013
3.52,7257.5,-20987
3.52,7259.9,-20983
3.52,7266.2,-21009
3.52,7258,-21032
3.52,7255.8,-20994
3.52,7252.9,-20994
3.52,7227.6,-21041
3.52,7215.4,-21067
3.52,7208.4,-21077
3.52,7232.1,-21069
3.52,7242,-21070
3.52,7230.7,-21045
3.52,7224.6,-20994
3.52,7233.8,-20974
3.52,7247.9,-21010
3.52,7267.6,-21030
3.52,7285.5,-21054
3.52,7274.4,-21077
3.52,7234.8,-21098
3.52,7194.3,-21077
3.52,7215.1,-21048
3.52,7278.5,-21038
3.52,7292.8,-21076
3.52,7282.4,-21087
3.52,7256.5,-21144
3.52,7242.3,-21128
3.52,7230.6,-21119
3.52,7238.1,-21128
3.52,7241.5,-21066
3.52,7239.8,-21009
3.52,7257.7,-20986
3.52,7245.7,-21029
3.52,7247.3,-21027
3.52,7279.1,-21017
3.52,7299.8,-20993
3.52,7295,-20936
3.52,7300.4,-20840
3.52,7321.9,-20894
3.52,7340.1,-20944
3.52,7352.2,-20984
3.52,7376,-21022
3.52,7377.2,-20996
3.52,7360.9,-20962
3.52,7367.2,-20972
3.52,7388.7,-20976
3.52,7380.2,-21001
3.52,7368.3,-21036
3.52,7358.9,-21076
3.52,7383.9,-21082
3.52,7396.7,-21057
3.52,7417.5,-21036
3.52,7453.1,-20988
3.5207,7476.8,-20989
3.5203,7486.6,-20972
3.52,7467.3,-20991
3.5207,7450,-21021
3.5203,7454.3,-21033
3.52,7462.5,-21036
3.52,7452.7,-21094
3.5207,7443.4,-21105
3.5203,7414.9,-21096
3.5207,7374.4,-21072
3.5203,7317,-21005
3.52,7286.7,-20948
3.52,7291.6,-20929
3.5207,7267.9,-20941
3.521,7255.9,-20967
3.521,7256.8,-21011
3.5203,7250.3,-21026
3.52,7234.7,-21016
3.52,7237.9,-21014
3.52,7260.1,-21041
3.5207,7253.8,-21069
3.5203,7218.7,-21016
3.52,7186.5,-21015
3.52,7177,-21009
3.5207,7188.8,-21016
3.5203,7193.9,-21017
3.5207,7194.9,-20967
3.521,7200.8,-20959
3.5203,7189.2,-20970
3.5207,7176.9,-20992
3.521,7168,-21007
3.521,7162.4,-21005
3.5203,7190.3,-21018
3.5207,7187.1,-21032
3.521,7188.3,-21049
3.521,7201,-21045
3.521,7187.8,-21060
3.521,7168.2,-21071
3.521,7168.9,-21093
3.521,7161.2,-21106
3.521,7158.7,-21083
3.521,7168.2,-21035
3.521,7172.6,-20972
3.521,7164.7,-20931
3.521,7169.7,-20939
3.521,7176.9,-20952
3.521,7200.1,-20957
3.521,7202.5,-20953
3.521,7191.2,-20969
3.521,7181.1,-21002
3.521,7166,-21008
3.521,7151.7,-21000
3.521,7163.3,-21014
3.521,7171.1,-21024
3.521,7167.7,-21009
3.521,7177.1,-21011
3.521,7183.9,-21012
3.521,7192.2,-21027
3.521,7201.2,-21052
3.521,7203.9,-21059
3.521,7200.8,-21067
3.521,7182,-21069
3.521,7177.6,-21059
3.521,7166.2,-21048
3.521,7148,-21010
3.5217,7149.8,-20982
3.5213,7134.2,-21010
3.521,7151.2,-21031
3.5217,7201.5,-21045
3.5213,7278.1,-21043
3.5217,7371.7,-21029
3.5213,7475.2,-21020
3.521,7643.8,-21010
3.521,7813.5,-21044
3.521,7987.6,-21101
3.5217,8159.6,-21104
3.5213,8371.5,-21048
3.5217,8557.7,-20982
3.522,8699.8,-20955
3.522,8749.9,-20931
3.522,8768.1,-20891
3.5213,8473.6,-20875
3.521,8010.3,-20900
3.521,7556.6,-20948
3.5217,7122.4,-20949
3.522,6859.3,-20947
3.5213,6710.2,-20980
3.5217,6564.3,-20982
3.522,6483.3,-20956
3.522,6451.9,-20946
3.522,6482.8,-20947
3.5213,6572.7,-20975
3.5217,6658.5,-21005
3.5213,6776.6,-20991
3.5217,6906.7,-20997
3.522,7027.9,-21024
3.522,7119.6,-21031
3.522,7169.9,-21015
3.522,7212.1,-20990
3.522,7246.8,-21000
3.522,7263.2,-21006
3.522,7273,-21011
3.522,7268.9,-21018
3.522,7268.6,-21012
3.522,7269.8,-21031
3.522,7240.9,-21024
3.522,7244.8,-21011
3.522,7261.4,-21030
3.522,7279.6,-21039
3.522,7291.8,-21027
3.522,7297.7,-21046
3.522,7292.8,-21060
3.522,7281.6,-21031
3.522,7274.4,-21028
3.5227,7277.8,-21051
3.5223,7263.2,-21048
3.522,7278.3,-21033
3.522,7288.1,-21019
3.522,7282.8,-21026
3.5227,7279,-21043
3.5223,7272.7,-21052
3.522,7268.9,-21084
3.522,7287.1,-21109
3.522,7294.2,-21079
3.5227,7301.9,-21020
3.523,7314,-21012
3.523,7312.3,-20958
3.523,7319.6,-20928
3.523,7315.4,-20962
3.523,7309.1,-20976
3.523,7328.1,-20992
3.523,7341.6,-21006
3.5223,7342.6,-21055
3.522,7333.2,-21061
3.5227,7335.6,-21065
3.523,7332,-21056
3.523,7336.6,-21041
3.523,7339.5,-21016
3.523,7337,-20989
3.523,7322.7,-20986
3.523,7306.5,-20965
3.523,7308.9,-20983
3.523,7322.4,-20992
3.523,7343.3,-21022
3.523,7359.7,-21048
3.523,7345.8,-21056
3.523,7335,-21056
3.523,7341.1,-21038
3.523,7351.2,-21057
3.523,7358.6,-21072
3.523,7374,-21089
3.523,7381.5,-21112
3.523,7379.8,-21101
3.523,7376.3,-21061
3.523,7382.5,-21018
3.523,7391.6,-21018
3.523,7397.3,-21015
3.5237,7389.5,-21004
3.5233,7388.6,-20989
3.5237,7398.8,-20975
3.524,7402.4,-20999
3.524,7415.4,-21016
3.524,7404.5,-21018
3.5233,7393.2,-21010
3.523,7413.1,-21038
3.523,7413.6,-21061
3.523,7414.1,-21074
3.5237,7418.9,-21029
3.5233,7424.5,-20974
3.5237,7447.8,-20940
3.5233,7448.6,-20945
3.523,7453.3,-20977
3.5237,7460.7,-20983
3.524,7441.3,-20971
3.5233,7444.2,-20969
3.5237,7454.3,-20968
3.524,7474.3,-21032
3.524,7496.4,-21085
3.524,7497.2,-21087
3.524,7505.4,-21076
3.524,7513.9,-21027
3.524,7486,-20970
3.524,7472.3,-20943
3.524,7492.5,-20961
3.524,7510,-20981
3.524,7527.9,-20986
3.524,7539.8,-20964
3.524,7542.9,-20952
3.524,7546.1,-20908
3.524,7557,-20926
3.524,7567.1,-20950
3.524,7556.8,-20977
3.524,7560.5,-21016
3.524,7580,-21025
3.524,7585.5,-21042
3.5247,7592.7,-21087
3.525,7603.7,-21166
3.5243,7592.3,-21181
3.524,7587.9,-21107
3.524,7613.1,-21072
3.524,7621.2,-21054
3.524,7618,-21030
3.524,7630.4,-21009
3.5247,7644.4,-21062
3.525,7636.3,-21056
3.525,7627.8,-20956
3.525,7640.6,-20925
3.525,7654,-20954
3.525,7648.9,-20950
3.525,7633.5,-20981
3.525,7630.9,-21046
3.525,7632.7,-21019
3.525,7645.1,-20989
3.525,7656.5,-20994
3.525,7667.1,-21036
3.525,7667.3,-21071
3.525,7674.2,-21066
3.525,7678.7,-21017
