scl , ecg , emg_trap
14.428,-3021.1,1349.9
14.426,-3035.9,1341.9
14.426,-3046.3,1363.7
14.426,-3058.8,1378.2
14.429,-3061.5,1396
14.428,-3065.4,1397.9
14.422,-3074.9,1398.4
14.423,-3073.9,1403.2
14.427,-3073.7,1391.5
14.428,-3071.5,1380.4
14.429,-3069.5,1377
14.431,-3070.7,1375.8
14.431,-3072.5,1381.2
14.431,-3076,1374.5
14.43,-3076.1,1379.6
14.424,-3076.2,1373
14.424,-3080.4,1353
14.422,-3084.7,1362.6
14.425,-3079.1,1374.9
14.428,-3082.7,1376.6
14.425,-3080.3,1362.4
14.426,-3072.7,1379.5
14.431,-3071.1,1383.9
14.429,-3064.3,1382.9
14.427,-3059.9,1385.4
14.428,-3055.8,1384.7
14.43,-3058.9,1381
14.43,-3070.7,1376.4
14.429,-3073.8,1385
14.427,-3082.2,1400.5
14.428,-3087.4,1406.8
14.431,-3079,1405.7
14.431,-3074.1,1387.2
14.427,-3075.6,1398
14.431,-3082.4,1407.3
14.43,-3093.9,1381
14.427,-3087.3,1368.3
14.427,-3069,1372.7
14.426,-3011.9,1357.3
14.426,-2913.1,1348.5
14.428,-2798.7,1353.2
14.429,-2704.4,1361.1
14.426,-2625,1365.7
14.424,-2527.7,1375.4
14.425,-2393.7,1377.1
14.426,-2196.1,1374.6
14.428,-2039.5,1373.4
14.428,-1914,1391.1
14.429,-1694.8,1402.1
14.424,-1496,1390.4
14.423,-1324.4,1397.4
14.425,-1236.1,1395.5
14.425,-1282.2,1393.8
14.424,-1430.5,1408.8
14.425,-1661.7,1403
14.429,-1978.1,1380.3
14.427,-2359.3,1368.9
14.427,-2645.9,1363.7
14.427,-2936.1,1354.5
14.424,-3203.9,1353.8
14.425,-3318.4,1349.3
14.426,-3335.6,1347.6
14.422,-3334.4,1336.4
14.423,-3309.5,1341
14.42,-3270.9,1373.1
14.419,-3219.3,1396.5
14.418,-3132.1,1411.9
14.424,-3068.2,1392.4
14.427,-3035.4,1362.7
14.423,-3022.4,1349.2
14.423,-2999.9,1363.5
14.427,-2991.5,1399.6
14.426,-2996.8,1421.5
14.422,-2996.6,1418.3
14.426,-2995.1,1388.3
14.425,-2996.4,1382.7
14.425,-2996.6,1395
14.42,-3007.8,1398.6
14.422,-3014.6,1389.3
14.423,-3019.5,1386
14.423,-3024.3,1388.1
14.425,-3021.6,1388.2
14.426,-3015.5,1374.3
14.426,-3004.9,1374.8
14.426,-2997.6,1381.9
14.423,-2992.3,1386.4
14.421,-2985.8,1388.1
14.42,-2984.4,1388.1
14.424,-2989.3,1389.9
14.427,-2991.7,1384.4
14.421,-2995.5,1392.8
14.418,-2994.9,1393.1
14.419,-2990.1,1391
14.421,-2986.9,1382.4
14.42,-2980.9,1368.5
14.423,-2976.7,1360.6
14.426,-2979.5,1369.2
14.423,-2978.1,1386.4
14.425,-2979.3,1394.4
14.425,-2983.5,1398.2
14.425,-2980.5,1405.9
14.424,-2979.5,1405.2
14.426,-2977.3,1404.3
14.426,-2967.1,1402.4
14.427,-2964.6,1407.4
14.428,-2958.8,1408.1
14.425,-2957.4,1394.4
14.425,-2956.1,1387.5
14.42,-2957.4,1400
14.418,-2960.9,1402.4
14.423,-2959.5,1402.2
14.419,-2957.3,1395.7
14.42,-2949.8,1380.6
14.421,-2943.5,1370.9
14.418,-2931.3,1373.5
14.423,-2927.8,1387.5
14.427,-2934.2,1401
14.428,-2932.3,1395.8
14.423,-2925.4,1390.9
14.422,-2931.9,1393
14.422,-2923.9,1399.1
14.421,-2924.3,1390
14.423,-2922.1,1384.4
14.422,-2917.4,1380.3
14.42,-2905.1,1357.4
14.418,-2890.8,1331
14.422,-2884.9,1325.5
14.425,-2882.2,1344.7
14.422,-2880.9,1359.6
14.422,-2876.2,1356
14.422,-2872.2,1374.3
14.418,-2870.6,1390.1
14.417,-2866.8,1341.8
14.419,-2857.3,1329.4
14.418,-2848.3,1354.8
14.419,-2835,1355.6
14.421,-2825.6,1366.4
14.42,-2811.3,1380.2
14.419,-2807.1,1383.2
14.419,-2793.6,1386.3
14.417,-2784.7,1384.9
14.417,-2775.8,1376.6
14.418,-2757.3,1366.4
14.42,-2746.2,1358.4
14.422,-2731.2,1345.2
14.42,-2711.7,1338.3
14.42,-2704.8,1339.4
14.416,-2697.1,1352
14.419,-2684.9,1366.6
14.421,-2671,1391
14.421,-2660.5,1407.5
14.42,-2647.4,1410.8
14.419,-2637.3,1406.7
14.419,-2619.5,1386.2
14.418,-2601.5,1371.6
14.415,-2584.3,1382.2
14.414,-2572.1,1385.7
14.413,-2557.1,1380.9
14.418,-2543.1,1371.2
14.419,-2535.3,1351.8
14.414,-2527.6,1339.3
14.415,-2520.1,1327.2
14.414,-2509.8,1327.4
14.416,-2504.9,1335.9
14.415,-2496.9,1329.9
14.416,-2481.3,1351.3
14.417,-2472.7,1368.7
14.42,-2470.4,1374.8
14.419,-2473.2,1383.4
14.417,-2475.2,1387
14.416,-2479.9,1379.8
14.418,-2482,1387.9
14.418,-2484.1,1390.7
14.414,-2485.6,1379
14.412,-2494,1370.8
14.417,-2499.4,1366.6
14.421,-2511.1,1368
14.419,-2528.5,1366.6
14.417,-2548.2,1370.7
14.414,-2572.6,1374.5
14.412,-2605.5,1381.8
14.411,-2635.2,1395.8
14.412,-2656.7,1377.9
14.412,-2681.7,1374.4
14.413,-2704.8,1350.3
14.414,-2731.7,1341.4
14.417,-2760.5,1368.7
14.415,-2788.4,1379.7
14.418,-2814.6,1373.1
14.415,-2835.3,1369.4
14.414,-2860.3,1377.4
14.416,-2884.6,1389.8
14.413,-2905.9,1385.7
14.41,-2932.2,1382.5
14.41,-2946,1385.1
14.414,-2954.4,1381.3
14.412,-2974.3,1396.3
14.412,-2984.2,1394.6
14.414,-2994.4,1384.1
14.417,-3009,1390.9
14.414,-3017.2,1382.5
14.415,-3026.6,1376.5
14.412,-3034.2,1372.2
14.409,-3043,1376.3
14.411,-3048.8,1384.3
14.415,-3049.8,1379.3
14.409,-3050.3,1375.7
14.41,-3049.8,1380.7
14.415,-3057,1383.2
14.413,-3065.8,1376.6
14.414,-3071.3,1370.6
14.411,-3077.5,1366
14.412,-3086,1372.4
14.411,-3084.5,1391.5
14.411,-3081.8,1392.2
14.41,-3083.5,1391.3
14.408,-3073.7,1375.3
14.411,-3065,1367.8
14.408,-3066.2,1372.4
14.407,-3068.3,1364.5
14.408,-3076.7,1359.3
14.407,-3088.4,1371.2
14.41,-3093.3,1396.7
14.41,-3095.5,1405.1
14.41,-3094.5,1399.5
14.409,-3084.2,1390.2
14.415,-3074,1376.1
14.415,-3072.6,1380.6
14.411,-3073.7,1392
14.411,-3074,1387.2
14.409,-3071.3,1382.2
14.405,-3075,1384.3
14.41,-3080.9,1382.1
14.408,-3079,1381.8
14.41,-3077,1377.1
14.411,-3076.6,1365.3
14.404,-3068.2,1363.6
14.403,-3059.8,1357.7
14.407,-3058.2,1356.8
14.408,-3064.5,1358.9
14.407,-3072.5,1355
14.407,-3076.8,1367.1
14.405,-3081.8,1375.7
14.404,-3082.4,1378.3
14.408,-3079.8,1374
14.41,-3081,1370.8
14.407,-3082.6,1376.6
14.403,-3080.4,1367.8
14.407,-3083.2,1361.5
14.409,-3083.9,1367.8
14.404,-3084.3,1370.3
14.405,-3084.9,1377
14.406,-3088.2,1378.6
14.408,-3085.2,1373.3
14.408,-3087.1,1382.9
14.409,-3088.4,1375.3
14.405,-3088.3,1364.3
14.405,-3081.1,1361.1
14.405,-3080.6,1372.4
14.404,-3085.8,1375.7
14.403,-3082.9,1376.3
14.405,-3080.8,1380.2
14.405,-3084.4,1377.9
14.403,-3086.3,1371.8
14.4,-3092.9,1367.1
14.402,-3096.3,1364.6
14.402,-3094.9,1361.1
14.403,-3090.6,1359
14.405,-3083.2,1370.4
14.403,-3077.4,1376.6
14.402,-3077,1372.4
14.402,-3074.5,1381.8
14.399,-3085.8,1389.9
14.399,-3098,1384.8
14.403,-3095.1,1386.6
14.402,-3095.9,1386
14.398,-3085.5,1382.8
14.396,-3079.3,1377.7
14.4,-3080,1381.4
14.403,-3077.9,1380.2
14.403,-3078.3,1378.3
14.4,-3079.2,1375.4
14.402,-3090.7,1382
14.401,-3092.2,1380.7
14.399,-3090.2,1374.8
14.396,-3090.5,1384.1
14.398,-3079.7,1391.8
14.401,-3079.4,1372.8
14.402,-3072.9,1367.3
14.4,-3077.8,1373.2
14.403,-3083.1,1380.6
14.402,-3084.3,1375.4
14.399,-3090.2,1359.5
14.399,-3099.6,1360.5
14.394,-3098.1,1371.2
14.395,-3093.1,1374.4
14.397,-3088.2,1369.9
14.398,-3081.1,1373.3
14.396,-3076.7,1385.6
14.396,-3075.2,1382.7
14.4,-3072.4,1379.2
14.398,-3074.8,1343
14.397,-3079.3,1336.2
14.4,-3084.4,1345.7
14.403,-3091.2,1351.4
14.396,-3094.4,1368.6
14.391,-3098.2,1379.4
14.395,-3099.7,1394.3
14.397,-3098.8,1384
14.394,-3092.8,1373
14.395,-3094.3,1376.1
14.397,-3092.1,1374.3
14.398,-3085,1365.9
14.397,-3092.8,1352.3
14.397,-3092.9,1344.8
14.395,-3099.3,1352.9
14.391,-3104.9,1356
14.392,-3104.8,1356.8
14.396,-3102,1360.2
14.399,-3093.5,1374.6
14.395,-3091.9,1394.8
14.396,-3097.8,1405.2
14.396,-3090.7,1382.8
14.396,-3089.5,1378.1
14.395,-3096.3,1365.9
14.394,-3099.2,1338.6
14.399,-3103.4,1332.6
14.395,-3108.5,1346.6
14.396,-3100,1351.6
14.401,-3093.9,1356.8
14.396,-3091.8,1361.1
14.392,-3092.2,1374.4
14.396,-3095.8,1381.1
14.395,-3095.1,1378.5
14.389,-3102,1375.6
14.392,-3103.3,1373.6
14.393,-3105.7,1372.3
14.392,-3111.2,1374
14.392,-3108.2,1377.5
14.389,-3105.2,1376.9
14.386,-3102.4,1375.7
14.388,-3101.5,1374.9
14.391,-3101.7,1370.2
14.393,-3102.3,1368.7
14.391,-3108.2,1371.2
14.39,-3111.7,1374.7
14.39,-3111.6,1375.7
14.387,-3112.8,1379.2
14.389,-3106.1,1345
14.39,-3096.6,1324.4
14.393,-3099.4,1347.4
14.393,-3100.9,1364.1
14.389,-3101,1372.7
14.391,-3107.4,1377.6
14.392,-3110.1,1389.5
14.393,-3117.3,1383.9
14.389,-3119.4,1369.5
14.386,-3118.2,1366.6
14.387,-3117.7,1372.1
14.388,-3109.9,1378.3
14.387,-3105.1,1378.8
14.384,-3105.6,1381.6
14.384,-3108.8,1379.2
14.386,-3103.2,1371
14.389,-3099.7,1388.8
14.391,-3108.2,1381.8
14.387,-3112.9,1379.2
14.382,-3114.8,1390.8
14.386,-3114.9,1382.3
14.388,-3114.7,1368.8
14.389,-3107.6,1356.2
14.387,-3106,1348.7
14.385,-3110.3,1354.6
14.389,-3109.2,1364.3
14.392,-3116.3,1377.7
14.389,-3126.4,1383.4
14.386,-3123.6,1377.1
14.384,-3127.3,1378.5
14.386,-3130.6,1389.1
14.386,-3131.3,1395.3
14.386,-3122,1360.8
14.386,-3114.7,1327.6
14.382,-3113.3,1319.5
14.386,-3113.3,1328
14.385,-3110.1,1346.5
14.388,-3107.7,1353
14.39,-3112.2,1350.8
14.383,-3112,1369.3
14.383,-3099.3,1378.2
14.379,-3081,1369.6
14.379,-3091.8,1357
14.381,-3102.9,1350.8
14.383,-3105.7,1352.8
14.386,-3106.5,1359.1
14.382,-3102.4,1375.4
14.383,-3084.2,1384.6
14.385,-3071.6,1375.3
14.382,-3051.7,1359.6
14.379,-3042,1350.8
14.378,-3040.2,1351.1
14.38,-3040.7,1359.7
14.377,-3041.7,1360.7
14.376,-3046,1359.7
14.385,-3043.2,1360.8
14.385,-3041.1,1354.5
14.384,-3039.6,1353.6
14.38,-3047.3,1366.6
14.377,-3054.1,1374.9
14.376,-3057.5,1341.9
14.378,-3070.9,1311.6
14.379,-3084.8,1322.5
14.378,-3102.2,1339.9
14.376,-3115.9,1355.2
14.38,-3124.6,1327.9
14.383,-3132.4,1327.1
14.384,-3140.4,1359.3
14.383,-3150.8,1360.5
14.379,-3151.9,1361.3
14.378,-3147.3,1378.8
14.373,-3146.8,1395.4
14.375,-3145.3,1384.2
14.378,-3142,1371.3
14.376,-3135.8,1374.9
14.376,-3135.1,1372.8
14.38,-3133.5,1358.6
14.378,-3134.7,1355
14.381,-3142.5,1370.7
14.382,-3138.4,1379.9
14.381,-3138.1,1378.4
14.379,-3141,1374.9
14.376,-3136.9,1381.9
14.38,-3130.4,1393.9
14.38,-3129.2,1382.9
14.375,-3128.9,1363.1
14.374,-3125.4,1337.4
14.377,-3124.3,1325.4
14.375,-3124.9,1346.1
14.372,-3128.2,1358.4
14.373,-3134.9,1357.8
14.375,-3136.5,1355.5
14.372,-3134.4,1355
14.374,-3131.3,1359.8
14.375,-3128.4,1354
14.377,-3125.7,1351.8
14.377,-3131.5,1357.6
14.374,-3146.7,1369.8
14.374,-3154.6,1388.4
14.372,-3163.2,1395.1
14.374,-3155.8,1396.2
14.376,-3106.6,1393.2
14.373,-3022.9,1388.7
14.371,-2907.4,1381.6
14.374,-2797,1371.6
14.371,-2707.8,1368.4
14.372,-2623.8,1365
14.372,-2508.8,1359.5
14.373,-2326.5,1360.6
14.374,-2166.7,1366.1
14.374,-2032.1,1373.5
14.371,-1840.5,1366.3
14.368,-1633.2,1358.1
14.37,-1453.4,1369.1
14.373,-1318.8,1380.9
14.371,-1313.7,1388.2
14.371,-1426.2,1394.4
14.371,-1617.8,1381.4
14.369,-1925.6,1369
14.366,-2285.3,1373.6
14.368,-2609.1,1365.2
14.374,-2883.2,1349.7
14.371,-3169.7,1339.8
14.37,-3342.1,1322.7
14.371,-3375,1322.8
14.374,-3382,1319.2
14.375,-3385,1317.5
14.376,-3359.7,1328.9
14.373,-3310.9,1354.8
14.373,-3241.2,1357.4
14.371,-3157.8,1357.3
14.37,-3101.9,1354.7
14.366,-3079.8,1351
14.368,-3064.2,1352.1
14.374,-3040.2,1356.5
14.375,-3039.4,1359.2
14.374,-3037.4,1352.8
14.374,-3041.4,1353.4
14.373,-3046.7,1357
14.375,-3057.2,1354.7
14.371,-3063.6,1356.7
14.367,-3061.8,1355.4
14.367,-3059.3,1367.1
14.368,-3055.6,1367.4
14.366,-3055.2,1354.2
14.367,-3049.1,1354.1
14.368,-3051.1,1352.9
14.367,-3052.3,1353.6
14.367,-3052,1355.6
14.365,-3054,1354.6
14.368,-3059.9,1354.4
14.366,-3054.6,1362.8
14.364,-3047.3,1349.5
14.367,-3042.8,1333.3
14.365,-3040.9,1310.1
14.364,-3035.6,1315.2
14.371,-3030.3,1322.9
14.366,-3026.3,1327.8
14.365,-3029.5,1333.8
14.367,-3033.2,1344.9
14.367,-3038.4,1362.2
14.368,-3033.8,1367.9
14.368,-3031.5,1357.9
14.368,-3027.7,1355.3
14.369,-3016.6,1350.1
14.365,-3014.2,1354.7
14.364,-3010.9,1347.9
14.366,-3005,1339.7
14.366,-3004.9,1348
14.363,-3007.4,1351.6
14.368,-3013.1,1355.8
14.364,-3009,1360.5
14.363,-3005,1368.9
14.361,-2996.6,1363.9
14.358,-2989.8,1348.3
14.361,-2987.6,1341
14.364,-2979.6,1336.7
14.364,-2978.2,1322.5
14.363,-2975.3,1309.8
14.366,-2976,1313.1
14.363,-2978.1,1313.4
14.362,-2978,1332.5
14.359,-2973.3,1332.5
14.359,-2969,1340.3
14.357,-2962.2,1356.2
14.359,-2952.2,1357
14.362,-2938.8,1352.8
14.363,-2938.8,1357.5
14.357,-2936.7,1347.2
14.357,-2934.4,1340.2
14.357,-2928.8,1348.7
14.362,-2927.1,1363
14.356,-2923.3,1372.1
14.359,-2912.6,1376.6
14.358,-2898.6,1362.8
14.357,-2891.2,1355.2
14.355,-2877.9,1326.8
14.353,-2873.4,1303.8
14.355,-2872.8,1319.3
14.357,-2862.1,1313.3
14.359,-2853.7,1309.7
14.361,-2849.4,1330.5
14.357,-2842.2,1334.2
14.353,-2836.3,1332
14.358,-2826.3,1332
14.361,-2811.3,1328.8
14.358,-2796.1,1339.2
14.356,-2777.5,1343.9
14.354,-2756.8,1342.8
14.351,-2745.1,1331.8
14.351,-2735.4,1331.6
14.357,-2726.8,1326.2
14.354,-2717.6,1324.1
14.353,-2703.9,1322.7
14.354,-2679.7,1330.6
14.351,-2664.7,1350.8
14.351,-2651.6,1362.1
14.353,-2631.1,1352.3
14.352,-2617.9,1335.9
14.352,-2604.1,1327.4
14.353,-2586.9,1321.2
14.353,-2580.3,1323.7
14.35,-2571.8,1325.9
14.351,-2560.3,1329.3
14.351,-2549.1,1335.7
14.351,-2538.7,1339.5
14.348,-2530.2,1333.7
14.348,-2518.8,1338
14.35,-2512,1337.8
14.352,-2503.6,1332
14.35,-2501.1,1326.8
14.35,-2494.9,1333.3
14.349,-2489.1,1340.3
14.344,-2484.1,1351.1
14.345,-2481.3,1349.8
14.348,-2482.7,1331.5
14.346,-2483.3,1326.6
14.347,-2484.2,1321.2
14.347,-2483.7,1327.3
14.349,-2494.6,1322.4
14.348,-2512.2,1328.8
14.346,-2525.4,1326.4
14.345,-2550.9,1326.6
14.346,-2577.1,1335.6
14.349,-2604.8,1338.6
14.345,-2634,1345.4
14.345,-2659.8,1344.1
14.346,-2682.1,1336.5
14.346,-2704.1,1338.7
14.347,-2730.6,1335.6
14.342,-2755.3,1325
14.347,-2780.9,1315.6
14.349,-2806,1322.5
14.348,-2827.5,1328.6
14.347,-2853.6,1353.4
14.341,-2876.7,1342.6
14.346,-2899.7,1330.6
14.345,-2913.3,1328.4
14.341,-2926.4,1330.4
14.342,-2940.3,1330.1
14.347,-2962.2,1328.2
14.345,-2972.7,1331.1
14.342,-2985.8,1346.4
14.344,-3000.8,1360
14.341,-3011.1,1347.4
14.341,-3015.7,1315.8
14.346,-3020.8,1316.6
14.345,-3027,1332.1
14.344,-3029.1,1326.5
14.343,-3033.4,1332.7
14.34,-3041.7,1337.6
14.342,-3050.1,1347.9
14.345,-3058.2,1351
14.346,-3065.5,1338.7
14.345,-3075.3,1336.5
14.342,-3076.3,1335.9
14.34,-3074.1,1336.2
14.34,-3072.4,1334.7
14.341,-3070.1,1333.8
14.341,-3069.7,1341.6
14.34,-3072.8,1346.1
14.339,-3074.8,1335.7
14.342,-3070.9,1327.3
14.337,-3077.6,1322.9
14.336,-3077.3,1317.2
14.336,-3078.4,1325.4
14.337,-3080.1,1324.3
14.339,-3082.6,1330.1
14.338,-3075.3,1336.6
14.336,-3063,1339.1
14.339,-3066.1,1342.6
14.335,-3066.3,1339.7
14.337,-3063.5,1338.8
14.338,-3065.5,1330.2
14.335,-3070.2,1324.7
14.337,-3074.2,1323.6
14.335,-3077.9,1319.2
14.331,-3076.3,1324.5
14.331,-3070.2,1327.9
14.331,-3065.8,1335.8
14.337,-3067.2,1342
14.341,-3065.6,1353.5
14.336,-3069.5,1360.1
14.337,-3075.2,1348
14.336,-3079.3,1343
14.335,-3077.8,1344.9
14.338,-3073.5,1353
14.337,-3076,1359.8
14.332,-3074,1370.8
14.336,-3066.5,1351.3
14.337,-3068.8,1331.9
14.332,-3070.3,1330.9
14.331,-3066.7,1332.4
14.329,-3064.9,1331.9
14.333,-3070,1337.4
14.335,-3072,1346.2
14.333,-3071.1,1349.8
14.33,-3076.4,1350.7
14.331,-3077.5,1349
14.329,-3072.7,1334.7
14.326,-3071.7,1314.9
14.326,-3070,1322.9
14.329,-3069.4,1338.7
14.333,-3073.3,1352.9
14.335,-3079.3,1354.5
14.336,-3079.3,1352.1
14.331,-3071.4,1354.1
14.329,-3074.8,1320.6
14.335,-3073.4,1304.3
14.334,-3066.4,1312.6
14.33,-3060.4,1319.5
14.333,-3062.6,1322.9
14.332,-3063.6,1343
14.328,-3061.7,1353
14.329,-3064.4,1366.9
14.327,-3062.9,1373.8
14.329,-3064.2,1348.8
14.332,-3064.9,1332.1
14.329,-3067.5,1328.8
14.327,-3062.2,1334.1
14.329,-3056.9,1337.5
14.327,-3055.4,1338
14.325,-3060.1,1342.9
14.33,-3057.5,1340.3
14.327,-3062.2,1346.5
14.332,-3067.1,1353.5
14.33,-3064.4,1357.1
14.331,-3063.7,1354.9
14.332,-3060.3,1357
14.325,-3055.5,1357.3
14.321,-3053.5,1352.2
14.323,-3052.5,1340.4
14.326,-3056.6,1343.7
14.327,-3061.8,1354.6
14.325,-3063.1,1354
14.325,-3063.7,1350
14.326,-3061.1,1344.7
14.324,-3065.5,1345.2
14.323,-3066.8,1351.8
14.324,-3066.2,1344.7
14.324,-3062.5,1338.9
14.324,-3060.3,1334
14.324,-3063.6,1333.2
14.326,-3069.9,1339.6
14.326,-3068.2,1334.3
14.324,-3062.1,1325.6
14.323,-3063.3,1328.1
14.321,-3068.1,1334.6
14.319,-3070.2,1337.8
14.321,-3068.8,1335.3
14.324,-3062.2,1326.9
14.325,-3058.6,1310.9
14.324,-3062.5,1305.3
14.326,-3060.5,1319.3
14.324,-3067.6,1314.8
14.322,-3079.8,1285.4
14.322,-3081.9,1291
14.32,-3082.7,1315.9
14.319,-3080.7,1326.9
14.322,-3078.6,1324.2
14.323,-3074.6,1342.9
14.323,-3072.4,1367
14.323,-3068.5,1365.4
14.322,-3068.3,1357.9
14.321,-3070.7,1358.8
14.322,-3075,1354.8
14.322,-3079.7,1344.9
14.318,-3078.7,1334.2
14.317,-3079.6,1331.5
14.316,-3079.6,1338.7
14.317,-3076.8,1344.4
14.318,-3073.7,1340.8
14.319,-3073.6,1328.3
14.319,-3072.8,1329.9
14.316,-3074.9,1332.6
14.318,-3076.2,1336.6
14.32,-3083.6,1341.9
14.321,-3090.6,1336.7
14.32,-3089.3,1329.8
14.317,-3089.8,1325.7
14.314,-3090.8,1321.5
14.315,-3083.9,1331.9
14.32,-3077.8,1348.4
14.32,-3085.6,1354.3
14.318,-3093.8,1356.7
14.316,-3092.4,1358.6
14.316,-3090.9,1355.6
14.317,-3090.8,1354.5
14.313,-3093,1346.2
14.312,-3085.9,1335.9
14.315,-3083.8,1319.8
14.318,-3084.5,1318.6
14.317,-3076.1,1313.4
14.316,-3076.2,1316.8
14.315,-3082.3,1324.2
14.313,-3086.1,1330.8
14.316,-3093.4,1344.4
14.317,-3097.7,1325.2
14.313,-3104.4,1322.1
14.313,-3104.8,1321.3
14.314,-3102.8,1320.2
14.314,-3099.4,1334.9
14.311,-3094,1346
14.312,-3098.5,1353.7
14.315,-3097.5,1351.5
14.315,-3092.6,1358.6
14.314,-3098.2,1364.7
14.313,-3100,1354.7
14.31,-3098.3,1357.6
14.308,-3096.2,1353.5
14.308,-3091.8,1333.9
14.307,-3088.1,1320.2
14.308,-3087.4,1321.4
14.308,-3087,1328.3
14.308,-3086.8,1328.1
14.31,-3089.7,1324.6
14.311,-3094,1325.3
14.31,-3094,1338.4
14.311,-3094.9,1349
14.309,-3098.4,1352.8
14.308,-3097,1352.2
14.308,-3093.3,1346.2
14.309,-3088.8,1335.4
14.308,-3085.8,1338.9
14.307,-3089.9,1328
14.308,-3093.5,1315.5
14.307,-3098.2,1322.9
14.307,-3103.7,1326.7
14.308,-3101.5,1328.2
14.309,-3101.7,1330.7
14.308,-3104.8,1331.6
14.308,-3101.1,1337.2
14.305,-3096.9,1328.6
14.306,-3096.7,1316.7
14.307,-3094.9,1334.1
14.304,-3087.8,1342.4
14.302,-3086.2,1328.8
14.303,-3094.7,1316.3
14.301,-3098.8,1307.4
14.302,-3097.5,1306.7
14.304,-3095.6,1311.5
14.303,-3089.4,1311.5
14.304,-3077.2,1309.5
14.306,-3072.7,1311.5
14.303,-3078.5,1321.2
14.303,-3083.6,1338.6
14.304,-3082,1338.8
14.305,-3084.3,1346.3
14.304,-3076.9,1359.4
14.302,-3055.2,1343.2
14.301,-3036.1,1326.3
14.298,-3017.6,1328.6
14.296,-3014.7,1330.6
14.3,-3010.4,1333.1
14.303,-3009.7,1329
14.301,-3019.3,1324.4
14.302,-3014.9,1338.8
14.302,-3016.8,1346
14.299,-3020,1347.8
14.299,-3028.3,1346.7
14.298,-3040,1335.1
14.298,-3047.1,1334.9
14.301,-3057.2,1331.3
14.301,-3062.2,1328.2
14.302,-3076.4,1327.2
14.3,-3095,1323.4
14.298,-3104.2,1321.9
14.296,-3109.6,1333.4
14.297,-3120.1,1332.2
14.299,-3123.4,1320.1
14.297,-3122.6,1331.2
14.297,-3121.2,1342.1
14.299,-3114.1,1348.4
14.295,-3111.2,1340.2
14.295,-3102.9,1339
14.295,-3100.8,1353.6
14.295,-3106,1359.9
14.297,-3103.7,1356.7
14.298,-3106.4,1344.8
14.296,-3115.9,1334.2
14.295,-3117.6,1338.3
14.297,-3116.3,1340.3
14.293,-3113.8,1338.7
14.292,-3111.6,1320
14.297,-3106.8,1300.7
14.297,-3104.3,1301.3
14.298,-3104.5,1315.9
14.297,-3101.2,1318.9
14.293,-3101.7,1323.5
14.295,-3102.3,1341.7
14.294,-3106,1361.2
14.292,-3106.4,1372.8
14.296,-3106.1,1361.9
14.296,-3100,1352.1
14.292,-3094.9,1337.6
14.291,-3104.5,1325.3
14.294,-3109.9,1334.3
14.293,-3106.5,1344.7
14.291,-3113.7,1345.1
14.292,-3124.4,1349.2
14.293,-3128.4,1352.6
14.29,-3118.4,1351.7
14.288,-3091,1349.8
14.286,-3028.5,1342.5
14.288,-2918.6,1335.8
14.296,-2801.8,1332.3
14.294,-2718,1332.3
14.288,-2642.7,1328
14.289,-2544.5,1310.4
14.294,-2391.8,1310.4
14.289,-2206.2,1308.3
14.287,-2056.8,1313.4
14.291,-1888.3,1329.7
14.291,-1664,1339
14.286,-1474.1,1348.9
14.284,-1327.1,1349
14.287,-1276.2,1351.7
14.29,-1362.6,1346.6
14.291,-1531.3,1338.8
14.287,-1812.3,1330.1
14.284,-2163,1323.5
14.285,-2501.6,1313.7
14.284,-2775.8,1301.7
14.284,-3053.1,1305.2
14.285,-3270.6,1306.2
14.285,-3339,1308.9
14.283,-3356.6,1323.4
14.285,-3363.2,1332.4
14.289,-3358,1332.3
14.287,-3323.7,1329.3
14.285,-3253.9,1316.3
14.287,-3170,1315.1
14.288,-3099.3,1316.9
14.285,-3053.9,1325.2
14.283,-3028.5,1338.4
14.285,-3007.3,1342.8
14.284,-3005.3,1364.5
14.284,-3012.1,1353
14.285,-3015.7,1328
14.283,-3027.5,1327.9
14.278,-3042.1,1320.9
14.278,-3045.6,1317.9
14.281,-3042.3,1327.1
14.279,-3039,1337.3
14.281,-3028.8,1336.8
14.28,-3016.3,1337
14.28,-3011.6,1345.1
14.28,-3012.2,1359.8
14.277,-3014.3,1367.8
14.279,-3021.8,1350.9
14.282,-3028.8,1330.3
14.284,-3026,1323.1
14.281,-3023.2,1326.1
14.277,-3017.9,1326
14.278,-3010.8,1327.9
14.281,-3012.1,1334.8
14.284,-3011.8,1335.7
14.28,-3005.1,1334.5
14.278,-3003.4,1331.6
14.278,-3005.8,1330.9
14.278,-3002.6,1337
14.277,-3007.4,1335.9
14.279,-3012.1,1326.2
14.284,-3007.1,1321.4
14.282,-2996.5,1324.1
14.277,-2987.5,1331.9
14.274,-2983.9,1334.6
14.276,-2984,1320.8
14.279,-2985.8,1314.6
14.278,-2986.4,1327
14.275,-2988,1327.8
14.271,-2989.9,1325.3
14.271,-2994.2,1325.8
14.273,-2989.4,1326.2
14.274,-2978.9,1327.5
14.27,-2971.8,1322.1
14.271,-2964.8,1328
14.275,-2960.3,1337
14.278,-2958.9,1335.8
14.273,-2960.4,1316.5
14.27,-2959.6,1308.2
14.277,-2956.4,1322.9
14.277,-2951.8,1327.4
14.272,-2941.6,1331.3
14.274,-2935.4,1337.4
14.272,-2933,1346.4
14.27,-2923.8,1359
14.271,-2922,1359.8
14.27,-2918,1356.8
14.27,-2910.4,1344.3
14.271,-2912.1,1321.8
14.273,-2914.8,1332.5
14.27,-2911.9,1338.5
14.27,-2906.3,1332.4
14.268,-2897,1321.7
14.269,-2878.1,1316.5
14.271,-2863,1324.9
14.271,-2852.7,1325.5
14.269,-2847.8,1322.6
14.267,-2839.2,1328.4
14.267,-2835.3,1344.9
14.267,-2836.4,1354.3
14.266,-2833.1,1359.8
14.266,-2825.4,1350.9
14.264,-2807,1331.1
14.265,-2794.3,1311.7
14.269,-2778.7,1312.5
14.27,-2763.5,1325.7
14.266,-2751.8,1327.8
14.268,-2738.6,1336.6
14.27,-2737.7,1346.1
14.272,-2727.1,1348.4
14.27,-2716.5,1335.7
14.263,-2708.3,1315
14.264,-2690.8,1303.3
14.267,-2677,1296.7
14.264,-2658.1,1289.1
14.26,-2640.3,1285.1
14.263,-2626.1,1277.3
14.269,-2609,1279.3
14.265,-2595,1305.2
14.261,-2584.1,1327.9
14.261,-2574.1,1322.3
14.262,-2566.4,1312.7
14.261,-2558.2,1324.7
14.258,-2552.3,1326.3
14.262,-2540.4,1322.7
14.262,-2521.8,1324.4
14.26,-2508.3,1320.7
14.264,-2497.5,1321.6
14.262,-2489,1323.6
14.258,-2484.2,1322.4
14.258,-2481.2,1326.3
14.262,-2476.9,1318.6
14.261,-2472.3,1315.7
14.258,-2463.6,1312.7
14.257,-2459.8,1291.7
14.258,-2464.1,1293.6
14.257,-2474,1300.5
14.257,-2480.6,1304.2
14.258,-2490,1319.3
14.261,-2504.6,1322.8
14.26,-2527,1321
14.258,-2547.8,1325.2
14.256,-2563.4,1340.4
14.253,-2584,1339.9
14.255,-2601.4,1340.9
14.26,-2620.5,1342.5
14.258,-2644.4,1339.1
14.255,-2675.3,1328.4
14.258,-2702.2,1324.1
14.258,-2735.8,1315.3
14.256,-2765.8,1322.7
14.254,-2792.9,1325.2
14.255,-2816.9,1312.2
14.257,-2841,1295.4
14.257,-2862.4,1277.1
14.259,-2874.8,1265
14.256,-2893,1294.9
14.254,-2912.2,1315.9
14.256,-2926.3,1319.4
14.255,-2944.7,1335.9
14.251,-2963.9,1350
14.247,-2978.6,1360.5
14.252,-2998.4,1350.5
14.254,-3007.6,1337.2
14.255,-3012.5,1318.1
14.251,-3018.3,1305.2
14.25,-3019.5,1309
14.255,-3027.9,1319.4
14.257,-3033.9,1315.2
14.252,-3040.6,1313.7
14.251,-3053.5,1329.3
14.251,-3065.4,1336.1
14.253,-3074,1333.8
14.253,-3080,1337.6
14.254,-3077.6,1325
14.256,-3071.8,1321.5
14.254,-3064.6,1323.7
14.252,-3059.4,1321.5
14.25,-3057.2,1320
14.248,-3060.6,1323.5
14.252,-3065.8,1328.3
14.25,-3069.9,1322.7
14.247,-3075.7,1323.5
14.247,-3071.8,1321.8
14.25,-3066.8,1314.1
14.25,-3061.3,1320.6
14.25,-3066.1,1327.8
14.25,-3070.3,1320.6
14.25,-3070.6,1311.7
14.249,-3075.3,1305.5
14.249,-3081.9,1309.3
14.248,-3088.8,1326.6
14.248,-3089.4,1325.8
14.248,-3093.5,1341
14.248,-3091.3,1339.5
14.25,-3089.9,1312.9
14.248,-3091.6,1305
14.245,-3088.6,1314.3
14.248,-3089.2,1313.8
14.248,-3092.1,1311.1
14.246,-3090,1321.8
14.248,-3089.4,1323.4
14.245,-3092.1,1319.8
14.244,-3090.1,1329
14.246,-3096.7,1323.8
14.244,-3096,1325.9
14.243,-3092.1,1331.3
14.244,-3090.3,1318
14.245,-3091.7,1314.9
14.246,-3094.6,1327.4
14.247,-3097,1342.3
14.247,-3097.9,1345.3
14.244,-3100.8,1323.6
14.247,-3100.2,1307.5
14.249,-3098.1,1306.9
14.246,-3096.9,1297.7
14.243,-3093.8,1287.5
14.242,-3097.7,1272
14.24,-3098.8,1273.4
14.244,-3090.6,1289.8
14.247,-3089.1,1305.6
14.244,-3088.7,1317.7
14.241,-3087.7,1320.6
14.24,-3090.1,1336.7
14.243,-3091.9,1331.6
14.245,-3083.3,1319.1
14.247,-3074.8,1320.6
14.241,-3073.9,1312.9
14.238,-3075.5,1317.4
14.238,-3080.4,1329.2
14.239,-3079,1335.3
14.241,-3080.6,1332.2
14.238,-3081.8,1327.7
14.236,-3086.1,1336.1
14.241,-3087.3,1322.2
14.24,-3084.5,1298.8
14.237,-3083,1314.7
14.237,-3076.1,1330
14.236,-3068.8,1334.7
14.239,-3071.3,1332.6
14.242,-3071.9,1350.5
14.238,-3069.7,1361.3
14.235,-3078.7,1341.3
14.234,-3083.3,1327.1
14.23,-3079,1327.1
14.232,-3081.2,1330.7
14.234,-3076.7,1322.6
14.236,-3071.9,1320.3
14.234,-3068.7,1327.6
14.238,-3068.1,1333.9
14.239,-3068.8,1321.5
14.238,-3068.6,1299.5
14.235,-3069.9,1291.3
14.232,-3078.7,1281.9
14.234,-3083.7,1275.3
14.234,-3083.3,1283.2
14.231,-3081.9,1301.8
14.233,-3077.1,1326.2
14.235,-3074.8,1327.8
14.232,-3072.2,1329.9
14.235,-3069.6,1332.9
14.236,-3073.9,1320.5
14.232,-3077.2,1322.2
14.23,-3081,1332.8
14.236,-3078.8,1343.9
14.239,-3077.7,1334.2
14.233,-3078.7,1330.3
14.234,-3067.6,1322.7
14.235,-3059.2,1320.1
14.233,-3059.5,1321.3
14.23,-3065.6,1321.2
14.23,-3072.7,1319.5
14.229,-3075.1,1318.3
14.23,-3076,1317.8
14.228,-3080.4,1303.9
14.227,-3083.7,1293.7
14.225,-3080,1280.1
14.226,-3080.7,1278.6
14.229,-3083.8,1301.7
14.227,-3083.9,1307.7
14.225,-3083.3,1301
14.227,-3085.8,1317.8
14.228,-3093,1329.5
14.228,-3093,1332.1
14.228,-3093.3,1333.2
14.225,-3091.3,1336.1
14.225,-3087.4,1336.3
14.227,-3083.2,1325.2
14.229,-3076.1,1324.4
14.228,-3073.9,1330.5
14.226,-3076.8,1324.3
14.225,-3084.1,1325.1
14.222,-3087.3,1329.1
14.224,-3089.1,1319.8
14.226,-3098.3,1303.2
14.226,-3101.1,1302.4
14.226,-3102.8,1317.5
14.229,-3099.3,1315.7
14.226,-3093.4,1319
14.223,-3088.8,1315.4
14.224,-3083.6,1308
14.224,-3081.5,1300.5
14.223,-3082.3,1301.5
14.226,-3084.5,1306.7
14.225,-3089.5,1315.4
14.224,-3088.7,1333.8
14.223,-3087.3,1344
14.221,-3087.5,1325.3
14.221,-3089.6,1322.4
14.222,-3092.3,1326.7
14.222,-3087.4,1326.1
14.223,-3087.3,1318.2
14.221,-3092.7,1295.5
14.22,-3093,1283.4
14.221,-3093,1300.5
14.221,-3099.7,1317.8
14.221,-3103.3,1331.7
14.217,-3099,1337.9
14.217,-3099.9,1345.4
14.22,-3104.7,1344.8
14.221,-3099.9,1334
14.218,-3096.9,1318.7
14.218,-3098.7,1312.8
14.22,-3104.3,1317.1
14.217,-3098.5,1320
14.217,-3101.4,1315.7
14.217,-3100.9,1313.7
14.217,-3097.9,1303.4
14.214,-3094.9,1296.1
14.217,-3095.4,1285.8
14.216,-3093.5,1286.9
14.216,-3096.4,1303.9
14.215,-3101.6,1316.8
14.214,-3100.6,1327
14.214,-3102.9,1327.1
14.212,-3106.9,1318.5
14.209,-3105.4,1327.6
14.214,-3108.4,1315.1
14.216,-3105.8,1299.8
14.212,-3099,1298.6
14.213,-3097.7,1313.2
14.218,-3097.4,1322.1
14.22,-3089.1,1338.1
14.217,-3085.7,1332.7
14.213,-3093.9,1328.2
14.213,-3096.2,1321.8
14.211,-3090.3,1333.5
14.21,-3094.6,1347.5
14.208,-3100.1,1329
14.212,-3101.7,1306.6
14.215,-3099.1,1300.3
14.216,-3100.6,1308.1
14.211,-3102.1,1302.3
14.211,-3100.2,1290.8
14.205,-3103.8,1312.6
14.207,-3105,1330.6
14.209,-3100.7,1336.4
14.21,-3095.8,1327
14.21,-3098.5,1318.1
14.208,-3102.7,1316.6
14.207,-3100.3,1308.8
14.21,-3100.8,1311.1
14.208,-3099.8,1318
14.21,-3098.8,1330.8
14.21,-3103.4,1329.2
14.207,-3106.5,1307.6
14.205,-3103.9,1301.7
14.207,-3102.9,1303.3
14.211,-3102.9,1298.5
14.207,-3099,1315.2
14.207,-3093.4,1325.6
14.208,-3097.6,1322.8
14.208,-3097.7,1326.3
14.207,-3099.8,1319.7
14.207,-3109.6,1319
14.207,-3114.7,1325.5
14.205,-3116.5,1338.7
14.205,-3117.2,1325
14.204,-3105.7,1326.4
14.2,-3097.4,1319.7
14.208,-3093,1314.7
14.212,-3084.6,1321.2
14.206,-3074.2,1317
14.201,-3078.5,1301.6
14.2,-3077.3,1293.6
14.2,-3072.2,1304.9
14.202,-3077.7,1306.5
14.202,-3081.9,1287.8
14.202,-3085.4,1268.2
14.201,-3085,1274.9
14.199,-3076.3,1288.5
14.203,-3059.5,1288.7
14.201,-3044.3,1283.5
14.202,-3026.4,1278
14.208,-3018.3,1274.1
14.209,-3028.1,1283.8
14.204,-3035.5,1302.3
14.201,-3036,1325.6
14.198,-3034.3,1329.3
14.199,-3031,1341.2
14.201,-3024.6,1339.6
14.199,-3020.8,1342.5
14.201,-3026.1,1344.3
14.204,-3033.8,1333.3
14.2,-3045,1313.7
14.203,-3060.6,1310.6
14.2,-3077.2,1318.5
14.197,-3088.7,1328.3
14.194,-3103.1,1318.5
14.197,-3114.9,1297.5
14.2,-3110,1303.1
14.2,-3107.6,1319.7
14.196,-3105.4,1326.2
14.2,-3108.4,1318.7
14.198,-3110.7,1322.8
14.197,-3114.4,1332.5
14.196,-3113.7,1327.6
14.196,-3112.5,1317.3
14.197,-3112.4,1323.5
14.194,-3117.3,1325.7
14.192,-3122,1319.6
14.198,-3124.7,1335
14.197,-3123.4,1338.5
14.192,-3112.8,1319.5
14.195,-3105.7,1290.4
14.198,-3104.7,1288.2
14.195,-3113.4,1303.3
14.192,-3117.3,1313.3
14.193,-3118.1,1313.3
14.196,-3112.4,1311.3
14.194,-3110.5,1316.1
14.196,-3106.4,1318.1
14.195,-3103.2,1312.4
14.197,-3098.8,1312.9
14.193,-3100,1310.4
14.192,-3107.3,1294.2
14.194,-3108.7,1291.6
14.194,-3108.6,1320.5
14.192,-3114.6,1323.5
14.191,-3116.5,1320.6
14.191,-3117.6,1321
14.189,-3119.2,1320.7
14.19,-3123,1333.4
14.193,-3126.4,1338.5
14.192,-3124.4,1344.2
14.193,-3091.9,1353.1
14.196,-3022.5,1341.4
14.194,-2933.2,1323.6
14.191,-2825.1,1283.5
14.191,-2742.7,1273.2
14.19,-2661.2,1280.4
14.193,-2553.2,1288.9
14.194,-2370.4,1297.2
14.189,-2176.2,1313
14.187,-2040.2,1328.2
14.189,-1855.4,1327.4
14.194,-1649.6,1310.9
14.19,-1492.5,1316
14.188,-1349,1328.2
14.192,-1311.1,1328.2
14.193,-1402.9,1328.8
14.191,-1553.8,1321.6
14.188,-1820.2,1311.4
14.189,-2167.6,1320.8
14.191,-2504.6,1319.2
14.191,-2788.7,1318.7
14.187,-3079.6,1323.8
14.191,-3305.5,1312.1
14.188,-3356.3,1314.8
14.19,-3375.1,1304.7
14.189,-3382.9,1296.6
14.187,-3357.6,1291.2
14.185,-3310.2,1287.1
14.19,-3235.5,1285.8
14.191,-3152.2,1283.6
14.187,-3094,1286.9
14.185,-3057.9,1272.6
14.193,-3044.5,1277.3
14.193,-3038.8,1279.2
14.185,-3032.3,1296.7
14.186,-3035.2,1306.2
14.186,-3035.8,1314.4
14.184,-3039.2,1322.6
14.184,-3038.8,1328.2
14.188,-3034.1,1328.5
14.191,-3035.1,1328
14.185,-3035.3,1325.3
14.183,-3040,1327
14.18,-3042.9,1318.7
14.184,-3046.4,1319
14.187,-3040.6,1312.8
14.187,-3032.3,1289.9
14.187,-3037,1276.2
14.183,-3030.3,1282.5
14.182,-3030.8,1289.5
14.181,-3022.1,1295.1
14.183,-3020.1,1298
14.188,-3020.1,1307
14.185,-3014.6,1326.6
14.183,-3010.6,1326
14.179,-3013.6,1329.6
14.176,-3016.2,1336.5
14.178,-3007.2,1345
14.18,-3000.8,1346.8
14.178,-3001.4,1357.3
14.18,-3000.9,1358.5
14.181,-2998,1349.5
14.18,-2995.5,1326.4
14.179,-3000.9,1309.2
14.181,-3001.8,1325.1
14.186,-3001.1,1329.8
14.182,-3001.3,1327.5
14.175,-2999.4,1332.5
14.174,-2987.4,1329.5
14.176,-2980,1323.1
14.175,-2979.2,1313.9
14.177,-2980.9,1315.2
14.177,-2981.5,1308.5
14.176,-2974.5,1290
14.178,-2978.6,1268.1
14.175,-2974.9,1268.7
14.177,-2976.3,1284.8
14.178,-2976.2,1296.4
14.179,-2972.2,1295.6
14.177,-2968.4,1315.1
14.181,-2956.6,1332.2
14.181,-2953.6,1328.6
14.178,-2946.2,1305.5
14.172,-2939.5,1304.1
14.176,-2938.4,1307
14.176,-2930.1,1303.7
14.172,-2916.8,1291.1
14.178,-2920.1,1289.1
14.178,-2913.4,1294.3
14.177,-2904.8,1309.5
14.174,-2900.7,1322.6
14.175,-2897.2,1323.2
14.174,-2895.7,1333.6
14.174,-2887.4,1321.8
14.175,-2876.5,1316.1
14.175,-2871.7,1313.7
14.173,-2868.8,1322.5
14.172,-2862.6,1325.3
14.17,-2851.4,1332.9
14.174,-2842.5,1338.4
14.173,-2831.6,1329.9
14.176,-2820.5,1331.6
14.173,-2811.3,1330.1
14.174,-2799.6,1323.4
14.173,-2789.6,1315.3
14.17,-2784.9,1310.9
14.172,-2774.7,1317.6
14.173,-2762.3,1308.4
14.17,-2756.5,1304.2
14.17,-2739.2,1308.1
14.169,-2718.3,1302.3
14.171,-2709.2,1297.7
14.172,-2694.7,1305.6
14.172,-2680.7,1283.3
14.173,-2667.5,1260
14.171,-2663.3,1273.4
14.171,-2642.9,1294.5
14.169,-2626.3,1298.5
14.17,-2614.9,1299
14.17,-2596.8,1308.6
14.165,-2578.2,1311.8
14.168,-2565.7,1290.5
14.172,-2561,1279
14.17,-2552.6,1284.5
14.168,-2543.4,1301.4
14.166,-2537.6,1304.6
14.165,-2524.3,1310.6
14.168,-2514.3,1315.7
14.166,-2502.2,1307.9
14.166,-2486.1,1303.2
14.164,-2473,1313.7
14.166,-2470.3,1312.1
14.167,-2475.1,1315.6
14.166,-2472,1312.5
14.167,-2474.9,1302.5
14.164,-2482,1292.3
14.163,-2486.6,1276.4
14.163,-2494.3,1276.6
14.165,-2496.9,1279.6
14.168,-2493.5,1282.4
14.166,-2518.3,1296.8
14.166,-2532.1,1311.1
14.163,-2549.9,1303.2
14.166,-2577.4,1315.7
14.165,-2595.8,1318.4
14.166,-2622.9,1317.9
14.164,-2654.1,1324.1
14.161,-2678.6,1321.1
14.159,-2699.9,1325.6
14.161,-2724.5,1319.5
14.164,-2750.8,1316.1
14.161,-2774.4,1314.8
14.159,-2805.8,1302.8
14.159,-2827.6,1298.5
14.164,-2846.6,1273.3
14.161,-2870.4,1281.4
14.159,-2894.1,1303.7
14.159,-2912.5,1310.3
14.164,-2928.5,1296.3
14.159,-2945.9,1287
14.159,-2960.9,1310
14.162,-2964.3,1323.2
14.164,-2979.5,1342.6
14.16,-2993.6,1321.3
14.161,-3004,1328.6
14.16,-3014.6,1334.1
14.161,-3029.6,1318.4
14.162,-3042.3,1306.6
14.162,-3049.3,1314.4
14.161,-3054.2,1316.5
14.163,-3057,1306.2
14.155,-3052.6,1298
14.158,-3061.3,1289
14.157,-3063.9,1291.1
14.159,-3064.8,1310.1
14.153,-3071,1314.8
14.153,-3077.8,1305.9
14.156,-3081.1,1310.2
14.156,-3077.1,1334.3
14.156,-3072.7,1337.8
14.154,-3071,1322.2
14.155,-3065.1,1321.1
14.154,-3063.4,1317.8
14.154,-3063.4,1317.7
14.155,-3073.8,1305.9
14.158,-3071.2,1304.4
14.16,-3074.7,1316.3
14.153,-3083,1324.2
14.159,-3089.2,1324.6
14.162,-3085.6,1337.6
14.158,-3081.4,1339.1
14.158,-3078.1,1326.2
14.153,-3076,1320.5
14.153,-3079.9,1302.3
14.153,-3078.2,1283.8
14.155,-3081.3,1292.6
14.153,-3087.3,1290.3
14.156,-3092.6,1294.4
14.156,-3095.4,1305.8
14.152,-3096.7,1310.2
14.152,-3090.9,1295.5
14.153,-3088.4,1297.8
14.155,-3083,1310
14.154,-3079.3,1310.6
14.154,-3083.4,1306.9
14.157,-3089.4,1313.1
14.157,-3086.1,1322.4
14.157,-3094,1339.5
14.152,-3097.2,1336.1
14.153,-3101.8,1341.8
14.154,-3101.2,1333.1
14.15,-3097,1342.1
14.153,-3090.6,1338.8
14.154,-3086.5,1335.5
14.153,-3079.3,1338.1
14.148,-3078.6,1357.4
14.148,-3085,1361.8
14.15,-3085.7,1360.6
14.145,-3091,1327.2
14.145,-3083.9,1328.5
14.146,-3093.3,1314.5
14.148,-3089.4,1269.4
14.151,-3071.5,1277.4
14.152,-3062.3,1276.8
14.149,-3054.8,1303.8
14.149,-3052.8,1309.3
14.148,-3059.1,1324.9
14.146,-3072.2,1347
14.141,-3077.5,1349.5
14.144,-3071.8,1349.1
14.145,-3067.7,1347.8
14.144,-3065.1,1348.4
14.154,-3065.8,1330.9
14.15,-3061.1,1297.1
14.145,-3057.8,1284.6
14.147,-3054.9,1288.6
14.147,-3054.3,1298.5
14.145,-3061.3,1301.8
14.148,-3061.4,1307.6
14.142,-3062.6,1320.3
14.145,-3064.1,1325.7
14.14,-3059.9,1314.6
14.146,-3054,1313.5
14.147,-3048.9,1318.4
14.145,-3045.7,1319.2
14.144,-3045.3,1309.2
14.146,-3045.2,1313.2
14.146,-3052.3,1319.2
14.142,-3063,1312.3
14.143,-3065.3,1327
14.139,-3064.5,1329.5
14.138,-3068.7,1338.2
14.141,-3069.5,1330.8
14.144,-3067.3,1327.6
14.14,-3060.8,1309.8
14.142,-3052.3,1304.6
14.145,-3059.6,1306.2
14.146,-3064.7,1302.6
14.141,-3061.4,1304.7
14.139,-3068.4,1309.6
14.138,-3066.6,1310.7
14.142,-3061.1,1323
14.141,-3060.2,1317.9
14.139,-3061.9,1303.2
14.141,-3055.2,1301
14.146,-3045.6,1318
14.142,-3055.6,1308.2
14.139,-3060.5,1302.6
14.138,-3059.5,1309.7
14.143,-3061.3,1317.7
14.138,-3067.5,1321.6
14.137,-3060.4,1317.8
14.139,-3064.1,1317.9
14.141,-3061.6,1304.7
14.139,-3056.7,1300.3
14.138,-3058.8,1274
14.142,-3059.8,1269.9
14.144,-3059.1,1298.8
14.142,-3061.3,1318.5
14.142,-3072.6,1319.8
14.138,-3072.6,1319.4
14.132,-3072,1326.1
14.134,-3068.2,1335
14.137,-3069.7,1323.7
14.141,-3064.2,1306.5
14.141,-3065.3,1309.6
14.141,-3061.8,1319.1
14.139,-3068.8,1303.7
14.137,-3072.7,1314.6
14.141,-3072.2,1325.8
14.139,-3072.1,1330.9
14.136,-3076.1,1312.6
14.134,-3077,1307.7
14.138,-3075.4,1318.7
14.136,-3070.6,1323.9
14.137,-3063.5,1311.4
14.136,-3061.1,1301.8
14.139,-3057.9,1309.6
14.137,-3069.4,1300.8
14.134,-3077.3,1302.8
14.137,-3081.1,1287.9
14.134,-3090.3,1300.7
14.136,-3090.2,1297.1
14.133,-3083.2,1304.9
14.136,-3073.9,1318.6
14.135,-3079.3,1287.8
14.133,-3080.6,1292.6
14.132,-3077.7,1307.9
14.133,-3077.4,1316.3
14.131,-3079.9,1332.2
14.132,-3081.8,1334.8
14.131,-3080.3,1337.2
14.128,-3073.9,1341.3
14.126,-3071.5,1341.6
14.128,-3073.7,1304.4
14.132,-3071.1,1288.7
14.132,-3069.3,1275.2
14.135,-3069.1,1296.6
14.136,-3067.8,1304.2
14.134,-3067.5,1299
14.136,-3075.8,1317.1
14.132,-3076.5,1323.4
14.133,-3082.9,1317.2
14.129,-3078.8,1305.3
14.133,-3080,1303.8
14.133,-3071.5,1302.6
14.132,-3072.9,1306.6
14.136,-3071.9,1311.9
14.132,-3074.8,1311.1
14.129,-3074.8,1315.8
14.134,-3080.1,1327.2
14.132,-3079.8,1317.6
14.131,-3083.9,1321.3
14.137,-3085.5,1315.3
14.136,-3082.3,1314.3
14.131,-3077.4,1304
14.129,-3070.7,1303.9
14.132,-3073.2,1313
14.135,-3081.5,1308.1
14.134,-3084.5,1313.5
14.13,-3081.1,1320.1
14.124,-3087.5,1343.3
14.129,-3085.3,1351.9
14.127,-3090.3,1363.1
14.128,-3080.2,1333.8
14.126,-3072.8,1295.2
14.128,-3074.4,1274.9
14.131,-3079.2,1269.5
14.133,-3090,1277.8
14.127,-3085.5,1281.3
14.122,-3086.7,1283.1
14.125,-3086.7,1307.7
14.129,-3085.5,1318.6
14.129,-3079.9,1318.4
14.125,-3078.3,1312.7
14.124,-3071.2,1302.3
14.126,-3074.5,1310.9
14.125,-3071.2,1324.3
14.124,-3075.3,1317.6
14.126,-3072.8,1312.5
14.127,-3078.8,1323.1
14.127,-3081.5,1314.5
14.125,-3085.5,1291.4
14.127,-3090,1298.9
14.128,-3083.6,1314.5
14.126,-3079.6,1318.5
14.123,-3075.8,1317.6
14.121,-3074.8,1313.2
14.121,-3074.7,1315.7
14.124,-3079.8,1309
14.125,-3082.3,1302.4
14.122,-3080.9,1326.3
14.125,-3079.3,1347.3
14.122,-3090.4,1349.7
14.124,-3090.1,1335.3
14.123,-3089.2,1317.5
14.12,-3082.5,1320
14.122,-3076.6,1312.8
14.125,-3072.3,1309.3
14.127,-3073.4,1295.1
14.125,-3077.2,1285.4
14.121,-3079.7,1291.7
14.125,-3076.5,1292.5
14.122,-3070.6,1307.5
14.116,-3074.2,1316.9
14.119,-3070.8,1313.1
14.121,-3065.4,1292.7
14.122,-3052.1,1291.1
14.12,-3051.7,1306.3
14.122,-3061,1302.5
14.121,-3057.6,1320.7
14.121,-3054.1,1319.2
14.119,-3052.5,1335.7
14.119,-3038.3,1333.8
14.122,-3030.3,1338
14.117,-3010.5,1330.8
14.12,-3000.2,1298.9
14.121,-3006.7,1290.4
14.119,-3006.3,1285.4
14.121,-3014.6,1295.4
14.12,-3010.7,1307.3
14.12,-3009.4,1315.8
14.122,-3008.6,1333.4
14.12,-3010.7,1341.5
14.119,-3014.5,1337.3
14.12,-3010.8,1325.5
14.118,-3012.2,1337.4
14.119,-3025.3,1328.1
14.117,-3045.3,1302
14.117,-3060.1,1302
14.119,-3078.8,1307.2
14.121,-3090.2,1325.8
14.123,-3110.8,1339.1
14.117,-3109.8,1323.4
14.116,-3109.8,1332.4
14.117,-3099.2,1330.2
14.119,-3097.8,1325.6
14.117,-3093.6,1316.4
14.12,-3088.3,1323
14.122,-3092.1,1328.3
14.122,-3096.7,1337.9
14.123,-3099.2,1338.5
14.117,-3102.3,1328.3
14.116,-3105.7,1326.1
14.117,-3101.5,1328.2
14.117,-3100.9,1333.5
14.113,-3096.9,1322.1
14.115,-3088,1304.8
14.115,-3085.6,1300.4
14.118,-3087.8,1296.5
14.118,-3089.4,1288.8
14.122,-3089.6,1293.3
14.116,-3100.7,1301.8
14.118,-3096.8,1303.3
14.116,-3095.1,1302.8
14.121,-3098,1305.6
14.12,-3095.2,1319.7
14.118,-3088.2,1333.5
14.117,-3081.2,1333.8
14.118,-3088.7,1331
14.121,-3080.8,1326.1
14.121,-3087.2,1323
14.116,-3100.1,1325.6
14.118,-3109.3,1331.2
14.119,-3119.1,1333.8
14.118,-3129.9,1334.1
14.114,-3111,1345.1
14.118,-3060.6,1345.3
14.114,-2966.4,1329.1
14.115,-2843.1,1314.9
14.117,-2753.7,1303
14.118,-2683.3,1297.5
14.115,-2585.5,1276
14.112,-2450.5,1282.5
14.113,-2252.9,1313
14.112,-2096.2,1328.4
14.117,-1940.4,1318.7
14.116,-1731.9,1308
14.117,-1519.7,1313.1
14.117,-1371,1319.4
14.119,-1268.8,1342.3
14.118,-1311.7,1355
14.118,-1448.9,1350.9
14.116,-1691.6,1361
14.113,-2030.7,1353
14.11,-2386.2,1320.3
14.112,-2686.6,1314.2
14.114,-2945.4,1320.8
14.117,-3214.5,1313.3
14.117,-3310.8,1290.8
14.113,-3337.3,1307.8
14.119,-3357.6,1321.8
14.115,-3365.8,1321.2
14.116,-3340,1308.3
14.117,-3283.6,1308.2
14.115,-3210.4,1308.5
14.116,-3131.2,1292.8
14.116,-3074.7,1304.6
14.113,-3037.8,1311.8
14.111,-3017.2,1320.5
14.112,-3010.3,1309.6
14.116,-3009.3,1317.4
14.114,-3014,1333.3
14.113,-3026,1334.9
14.114,-3024.5,1328.9
14.113,-3021,1322.7
14.117,-3020.3,1325.7
14.115,-3019.4,1320.9
14.117,-3027.2,1315.2
14.119,-3022.5,1315.1
14.12,-3022.9,1318.1
14.113,-3024.6,1328
14.111,-3018.9,1336
14.116,-3011.5,1347
14.117,-3009.1,1346.7
14.118,-3011.5,1337.3
14.117,-3009.4,1325.3
14.115,-3009.3,1319
14.111,-3011.5,1317.4
14.115,-2997.3,1310.1
14.117,-2996.9,1287.5
14.117,-3002.2,1285.8
14.12,-2997.8,1297.2
14.115,-3000.2,1311.7
14.118,-3002,1315.6
14.12,-2992.4,1325.6
14.116,-2988.4,1322.3
14.113,-2988.9,1331.6
14.111,-2987.1,1328.4
14.116,-2980.1,1333.8
14.116,-2983.7,1342.5
14.119,-2981.5,1334.2
14.121,-2980.3,1334.5
14.119,-2979.3,1339.1
14.12,-2979.9,1346
14.117,-2980.7,1320.5
14.119,-2976.1,1284.3
14.122,-2971.7,1289.3
14.122,-2966.2,1304
14.117,-2955,1299.1
14.119,-2942.3,1292.8
14.121,-2953.7,1297.9
14.12,-2954.9,1315.4
14.119,-2946.8,1312.6
14.121,-2943.7,1314.9
14.121,-2942,1320.9
14.121,-2942.4,1324.7
14.12,-2938.2,1337.6
14.121,-2931.2,1337.5
14.121,-2932,1311.1
14.121,-2926.8,1301.1
14.123,-2921.1,1299.8
14.121,-2918.5,1316.5
14.125,-2909.3,1323.5
14.129,-2910,1313.8
14.124,-2913.8,1310.8
14.126,-2906.2,1302.7
14.127,-2892.5,1310.8
14.123,-2881.1,1302.6
14.123,-2867.7,1299.9
14.126,-2858.3,1317.5
14.125,-2861.3,1325.7
14.121,-2849.5,1331.3
14.122,-2843.9,1305.5
14.124,-2846.4,1298.8
14.126,-2844.3,1283.7
14.129,-2833.8,1288.8
14.128,-2813.7,1303.6
14.131,-2807.2,1319.2
14.129,-2793.1,1317.6
14.13,-2780,1312.7
14.128,-2767.6,1331.9
14.127,-2759.2,1327.5
14.126,-2747.5,1319
14.13,-2741.7,1296.1
14.132,-2731.7,1268.4
14.134,-2717.8,1263.9
14.131,-2709.4,1290.6
14.129,-2693.6,1308.6
14.13,-2671.9,1307.2
14.129,-2649.1,1322.7
14.128,-2640.1,1328
14.134,-2626.1,1321.1
14.133,-2610.2,1323.2
14.131,-2599.9,1323.6
14.134,-2587,1321.5
14.137,-2583,1324.1
14.136,-2570.8,1330.5
14.131,-2556.8,1331.5
14.131,-2539.2,1321.7
14.133,-2524.2,1314.1
14.137,-2511.3,1301
14.136,-2501.9,1287.2
14.137,-2498.9,1303.3
14.135,-2489.1,1312.3
14.134,-2489.5,1307.5
14.138,-2483.2,1305.7
14.134,-2480.2,1290.5
14.135,-2475.9,1281.7
14.136,-2471.7,1273.1
14.137,-2460.3,1281.3
14.139,-2446.3,1287.9
14.139,-2449.3,1316.4
14.141,-2456.6,1336.6
14.143,-2463.8,1336.8
14.141,-2467.9,1320
14.142,-2487.8,1308.3
14.143,-2499.6,1310.8
14.141,-2522,1318.4
14.14,-2539.4,1319.9
14.139,-2556.7,1286.6
14.143,-2576.7,1273.8
14.142,-2606,1289.6
14.146,-2639.8,1292.6
14.145,-2671.3,1301.6
14.144,-2686.4,1311.1
14.143,-2712.7,1326.4
14.144,-2736.5,1340.3
14.145,-2764.9,1349.8
14.147,-2786.3,1333.9
14.148,-2806.9,1314.3
14.147,-2819.9,1321.2
14.15,-2841.3,1327.1
14.15,-2863.2,1319.9
14.154,-2882.2,1316.5
14.154,-2905.4,1291.2
14.148,-2931.1,1297.3
14.151,-2950.8,1305
14.153,-2963.5,1314
14.155,-2975.1,1326.1
14.157,-2987.4,1330
14.153,-2993.4,1323.9
14.158,-2987.3,1315.2
14.156,-2998.2,1318.7
14.156,-3010.1,1324
14.16,-3018.7,1317.8
14.158,-3027.6,1307.5
14.16,-3034.9,1317
14.161,-3038.5,1324.3
14.16,-3049.2,1331.8
14.157,-3052.1,1317.3
14.157,-3048,1300.6
14.159,-3040.3,1310.7
14.163,-3039.9,1318.9
14.163,-3041.4,1319.8
14.165,-3041.8,1332.4
14.163,-3051.4,1341.7
14.164,-3058.7,1340.1
14.165,-3059.7,1325.2
14.168,-3054.5,1314.8
14.167,-3060.8,1318.9
14.171,-3062.9,1316.4
14.17,-3064.1,1324.2
14.174,-3060.8,1322.2
14.172,-3064,1314.6
14.173,-3064.8,1308.1
14.172,-3073.3,1320.6
14.169,-3070.9,1313.3
14.169,-3067.8,1302.2
14.168,-3071.8,1302
14.174,-3075.8,1309.6
14.171,-3066,1315.3
14.177,-3060.3,1340.3
14.18,-3065.9,1326.8
14.179,-3064.5,1326.5
14.184,-3061.9,1316.1
14.177,-3062.9,1317.1
14.182,-3067.2,1313.3
14.184,-3072.7,1312.3
14.184,-3068.5,1313.2
14.183,-3064.5,1316.6
14.182,-3060.2,1324.6
14.185,-3055.4,1332.9
14.188,-3050.5,1337.6
14.19,-3054.8,1328.3
14.192,-3061.3,1327.9
14.189,-3062.2,1323.7
14.188,-3060.5,1318.7
14.188,-3058.7,1336.9
14.194,-3068.4,1347.9
14.194,-3068.7,1336.2
14.193,-3060,1316.3
14.198,-3061.3,1320.5
14.194,-3061.3,1318.1
14.198,-3058.5,1326.1
14.201,-3056.6,1330
14.197,-3054.3,1341.3
14.198,-3055.5,1345.4
14.2,-3055.8,1324.5
14.204,-3049.7,1320.9
14.205,-3048.8,1326.9
14.205,-3044,1322.4
14.203,-3047.7,1302
14.207,-3044.8,1278.3
14.207,-3043.4,1274.4
14.21,-3035.1,1290.5
14.213,-3040.8,1298.8
14.212,-3046.5,1331.3
14.214,-3051.7,1346.5
14.209,-3053.9,1364.8
14.212,-3052.2,1354.6
14.211,-3045.7,1350.1
14.215,-3041.5,1340.2
14.218,-3040.4,1318.9
14.217,-3036.1,1293.3
14.225,-3028.2,1287.3
14.223,-3028.6,1287.9
14.222,-3033.7,1294.2
14.222,-3040.1,1281.4
14.225,-3039.1,1286.6
14.227,-3040.6,1298.8
14.23,-3035.1,1323.2
14.227,-3040.8,1332.8
14.23,-3041.9,1324.1
14.229,-3041.2,1318.8
14.23,-3037.5,1328.5
14.23,-3031.1,1304.2
14.234,-3028,1299.1
14.238,-3035.8,1312.4
14.238,-3041.5,1312.3
14.239,-3035.3,1324.9
14.243,-3041.6,1328.7
14.243,-3041.9,1344.3
14.243,-3031.9,1335.3
14.241,-3030.4,1330.1
14.246,-3026.9,1322.4
14.246,-3036.5,1312.2
14.246,-3041.9,1303.2
14.246,-3043.6,1307
14.246,-3051.4,1307.5
14.249,-3059.4,1322.1
14.249,-3049.6,1316.4
14.249,-3043.4,1298.2
14.253,-3033.7,1287.3
14.256,-3030.1,1299.3
14.262,-3041.5,1307.6
14.262,-3042.2,1309.3
14.264,-3046.6,1303.3
14.262,-3045.2,1309.1
14.263,-3052.3,1321.1
14.263,-3060.3,1331.8
14.266,-3062.4,1338.6
14.266,-3060.5,1342.4
14.271,-3055.4,1355.7
14.266,-3052.6,1337.6
14.27,-3048.3,1324
14.277,-3044.3,1315.6
14.275,-3044.5,1307.6
14.275,-3042.9,1312
14.278,-3048.4,1318.5
14.28,-3052.9,1308.2
14.28,-3050.3,1294
14.284,-3051.9,1291.5
14.283,-3055,1287.9
14.284,-3049.2,1294.6
14.286,-3050.7,1288.6
14.289,-3051.8,1284
14.293,-3045.8,1311.2
14.291,-3043.9,1326.3
14.293,-3055.9,1326.8
14.294,-3056.3,1324
14.295,-3060.6,1333.6
14.295,-3059.4,1336.9
14.299,-3054.7,1324
14.301,-3052.4,1318.2
14.301,-3047.8,1313.8
14.305,-3052.4,1310.5
14.307,-3054.5,1309
14.309,-3053.7,1307.9
14.309,-3057.3,1318.7
14.31,-3061.4,1313
14.314,-3064.3,1289.2
14.313,-3067.3,1303.3
14.316,-3064.7,1318.8
14.317,-3061,1320.8
14.32,-3056.4,1321.5
14.326,-3054.8,1320.2
14.322,-3055.6,1332.8
14.324,-3053.1,1341.9
14.324,-3058.2,1345.1
14.327,-3065.2,1342.4
14.325,-3065.2,1326
14.331,-3060.2,1316.8
14.335,-3059,1319.5
14.336,-3057.1,1321.5
14.335,-3049.6,1333.8
14.341,-3046.4,1320.9
14.341,-3049.4,1311.1
14.34,-3054.6,1295.8
14.338,-3055,1287.9
14.341,-3054.4,1301.3
14.347,-3055.4,1303.3
14.349,-3053.9,1322.2
14.35,-3055.1,1334.5
14.351,-3060.3,1322.3
14.355,-3053.8,1335.7
14.358,-3049.5,1342.8
14.354,-3055.1,1328.3
14.358,-3060.8,1318.1
14.361,-3059.3,1320.8
14.363,-3058.8,1321.7
14.368,-3060.2,1313.9
14.371,-3062.4,1324.8
14.366,-3061.6,1341.5
14.368,-3056.3,1318.4
14.373,-3053.9,1322.5
14.373,-3049.4,1328.8
14.377,-3053.9,1336.2
14.377,-3052.9,1332.7
14.382,-3046.8,1300.5
14.379,-3056.3,1286.1
14.381,-3064.3,1295.8
14.385,-3061.8,1308.8
14.386,-3063.2,1308.6
14.391,-3062,1315.7
14.396,-3052.3,1314.8
14.39,-3045.8,1313.1
14.396,-3045.4,1312.9
14.398,-3042.2,1311.4
14.397,-3045.9,1311.2
14.401,-3053.5,1297.8
14.402,-3054.7,1302.6
14.405,-3054.4,1308
14.412,-3055.3,1315.9
14.413,-3056.5,1311
14.413,-3049.7,1302.5
14.415,-3045.1,1299.6
14.419,-3041,1300
14.417,-3043.7,1305.2
14.418,-3045.5,1301.5
14.423,-3049.7,1312.2
14.428,-3059.7,1329.3
14.431,-3067.1,1329.3
14.429,-3063.5,1327.9
14.434,-3064.7,1326.2
14.433,-3061.2,1301.5
14.434,-3053.7,1286.8
14.436,-3043.8,1265.4
14.437,-3044.3,1278.6
14.442,-3037.2,1315.7
14.448,-3026.8,1338.2
14.446,-3020,1350
14.451,-3029.7,1350
14.454,-3033,1339.8
14.454,-3031.5,1333.9
14.457,-3035.5,1319.6
14.454,-3036.3,1288.4
14.461,-3029.3,1278.7
14.463,-3023.7,1284.5
14.467,-3014,1305
14.468,-3005.3,1307.9
14.47,-2990.8,1308.7
14.473,-2974,1319.4
14.472,-2956.3,1318
14.469,-2962.8,1317.3
14.478,-2967.7,1315.4
14.482,-2971.1,1316.3
14.481,-2970.3,1320.2
14.486,-2969.5,1322.8
14.49,-2972.5,1313.6
14.486,-2965.3,1301.6
14.492,-2968.7,1305.2
14.49,-2979.8,1305
14.499,-2991.5,1314.1
14.499,-3004.2,1306.1
14.502,-3018.3,1289
14.509,-3024.1,1295.6
14.51,-3037.5,1276.6
14.508,-3052.7,1261.9
14.515,-3064.6,1280.7
14.513,-3061.7,1294.9
14.512,-3065.9,1291.5
14.52,-3077.6,1291.5
14.522,-3079.9,1300.2
14.525,-3078.2,1314.9
14.528,-3079.3,1318.8
14.528,-3077.3,1319.9
14.533,-3061.2,1335.4
14.537,-3058.2,1352.8
14.536,-3064.3,1337.2
14.54,-3070.5,1331.4
14.543,-3072.4,1321.6
14.544,-3077.3,1311.9
14.545,-3083.3,1311.8
14.547,-3082,1307.7
14.554,-3078.6,1304.3
14.555,-3075.7,1298
14.555,-3070.7,1295.2
14.561,-3067.7,1282.9
14.566,-3060.1,1293.6
14.565,-3060.9,1296.7
14.569,-3072.1,1301.1
14.568,-3080.9,1307.9
14.572,-3077.7,1321.7
14.575,-3077.6,1326.3
14.578,-3073.1,1321.3
14.575,-3071.1,1334.3
14.582,-3065.4,1339.2
14.585,-3057.5,1327.4
14.594,-3072.8,1312.4
14.594,-3075.1,1321.8
14.593,-3078.1,1333.7
14.598,-3057.5,1340.2
14.596,-2999.8,1326.4
14.596,-2897.6,1310.1
14.604,-2793.9,1292.6
14.612,-2702.7,1288.2
14.611,-2615.4,1271.8
14.614,-2498,1271.9
14.613,-2303.5,1280.6
14.618,-2118.1,1297.2
14.623,-1987.3,1320.2
14.621,-1802.6,1325.8
14.627,-1585.6,1334.8
14.63,-1437.3,1348.6
14.631,-1295.5,1339.4
14.632,-1263.2,1342.9
14.637,-1369.5,1357.8
14.642,-1539.2,1376.5
14.644,-1832.1,1350.8
14.648,-2191.6,1314.6
14.654,-2524.1,1302.2
14.653,-2788,1281.6
14.657,-3078.1,1287.3
14.657,-3282.1,1289.3
14.657,-3320.3,1293.7
14.66,-3325.1,1279.8
14.662,-3331.2,1263
14.669,-3321.1,1287.1
14.672,-3280.7,1307.4
14.679,-3209.5,1315.3
14.68,-3138,1314.5
14.686,-3070,1321.9
14.68,-3033,1337.3
14.684,-3012.2,1325.7
14.687,-2995,1335.9
14.691,-2983.6,1339.3
14.692,-2984.1,1333.4
14.698,-2983.4,1327.5
14.699,-2987.8,1304.7
14.705,-2985.2,1303.8
14.704,-2987.4,1307.8
14.708,-2989.8,1296.5
14.709,-2999.2,1298.7
14.714,-3002.1,1293.8
14.719,-3000.7,1306.1
14.72,-3002.8,1316.8
14.721,-2992.9,1321.5
14.72,-2988,1317.1
14.724,-2979.8,1321.7
14.73,-2976.9,1330.6
14.735,-2978.6,1310.2
14.737,-2976,1307.7
14.737,-2975.9,1306.1
14.74,-2982.1,1294
14.745,-2979,1304.4
14.746,-2979,1317.5
14.752,-2978.2,1316
14.754,-2973.2,1305.5
14.752,-2967.7,1306.9
14.763,-2964.7,1325.9
14.765,-2961.9,1342.9
14.77,-2960.7,1334.7
14.773,-2966.2,1331.9
14.772,-2972.2,1324.9
14.772,-2965.7,1313.1
14.773,-2966.1,1293.3
14.778,-2961.7,1299.2
14.784,-2952.2,1302.3
14.783,-2942.4,1289.8
14.784,-2931.7,1288.5
14.793,-2929,1316
14.799,-2931.3,1334.7
14.799,-2921.7,1333.8
14.801,-2920.8,1337
14.804,-2924.3,1337.7
14.807,-2918.1,1353
14.811,-2916.8,1336.3
14.815,-2915,1326
14.818,-2907.6,1327
14.823,-2903.7,1323.5
14.824,-2904.2,1313
14.825,-2909.9,1307.1
14.831,-2915.6,1299.5
14.829,-2903.8,1300.8
14.832,-2901.7,1304.3
14.835,-2896.5,1322.6
14.839,-2886.3,1365
14.839,-2872.4,1371
14.84,-2860.1,1354.5
14.851,-2853.9,1347.9
14.857,-2848.2,1351
14.857,-2836.9,1355.1
14.862,-2826.8,1338.7
14.864,-2833.3,1317.2
14.864,-2837.8,1314
14.87,-2835.7,1312.2
14.873,-2834.3,1313.3
14.876,-2823.1,1321.7
14.877,-2801.2,1311.3
14.882,-2790,1287.6
14.885,-2780.1,1294
14.888,-2773.7,1292.2
14.893,-2766.9,1297
14.893,-2761.6,1289.3
14.895,-2758.7,1286.2
14.898,-2745.1,1307.5
14.898,-2736.9,1310.4
14.904,-2724.3,1299.1
14.913,-2707.8,1291
14.912,-2690.7,1294.2
14.912,-2678.3,1312.2
14.919,-2660.6,1319.8
14.923,-2646.8,1311.2
14.924,-2638.9,1312.7
14.929,-2626,1319
14.932,-2619.1,1330.2
14.932,-2605.4,1324
14.934,-2593.1,1320.8
14.937,-2575.9,1311.1
14.942,-2562.8,1284.9
14.945,-2543.7,1283.6
14.946,-2536.7,1288.9
14.951,-2531.4,1292.8
14.954,-2518.7,1318.8
14.959,-2508.4,1322.9
14.964,-2504.2,1337.7
14.966,-2482.7,1327.6
14.968,-2469.1,1298.9
14.966,-2456.5,1298.6
14.977,-2445.8,1292
14.983,-2429.5,1282.6
14.987,-2421.7,1284
14.988,-2422.9,1307.5
14.99,-2421,1321
14.994,-2425.6,1326.1
14.996,-2426.3,1332
14.999,-2426.9,1335.9
15.001,-2428.4,1313.2
15.003,-2435.2,1296.1
15.004,-2436.7,1294.3
15.007,-2442,1288
15.014,-2450,1295.3
15.017,-2468.8,1290.6
15.019,-2487.6,1309.8
15.022,-2509.2,1322.3
15.027,-2527.7,1325.4
15.031,-2550.6,1313.2
15.036,-2578.6,1291.4
15.034,-2604.9,1294.3
15.036,-2630.3,1298.1
15.042,-2648.5,1305.8
15.043,-2670.5,1308
15.048,-2700.5,1315.6
15.051,-2729.6,1321.7
15.057,-2759.5,1315.2
15.061,-2783.2,1316.9
15.063,-2805.8,1309.7
15.069,-2822.8,1304
15.067,-2841.7,1297.9
15.07,-2861.4,1304.5
15.078,-2874,1323.6
15.083,-2890,1313.2
15.086,-2898.1,1310.7
15.088,-2915.7,1331.9
15.088,-2933.7,1351.5
15.095,-2943.7,1346.9
15.098,-2956.4,1342
15.098,-2971.5,1336.7
15.102,-2982,1322.8
15.104,-2991.9,1304.5
15.111,-2991.7,1304.6
15.114,-2987.3,1305.5
15.114,-2990.9,1311.4
15.121,-2993.2,1328.3
15.123,-2995.2,1327.4
15.127,-2998.9,1323.1
15.13,-3006.9,1319
15.135,-3015,1326.2
15.139,-3013.6,1336.1
15.137,-3011.6,1337.3
15.144,-2998.2,1334.8
15.142,-3009.5,1334.1
15.15,-3005.6,1324.1
15.156,-3005.2,1320.2
15.156,-3010.1,1316.3
15.162,-3014.8,1314.8
15.167,-3012.6,1309.2
15.165,-3011.5,1295.3
15.167,-3014.3,1298.1
15.172,-3012.7,1315.8
15.179,-3013,1327.3
15.174,-3014.8,1323.7
15.174,-3015.8,1331.1
15.181,-3015.2,1323.3
15.189,-3011.6,1323.5
15.192,-3018.2,1314.3
15.192,-3024.1,1320.8
15.198,-3027.2,1324.3
15.203,-3033.2,1292
15.204,-3031.6,1281.4
15.204,-3027,1298.4
15.21,-3029.6,1308.2
15.217,-3027.7,1306.5
15.219,-3026.6,1301.2
15.222,-3027.4,1322.4
15.223,-3021.7,1348.9
15.231,-3015.4,1348.9
15.232,-3024.5,1341.2
15.238,-3026.4,1339.7
15.235,-3023.4,1320.6
15.238,-3017.7,1315.6
15.246,-3015.6,1310
15.252,-3012.3,1305.2
15.255,-3014,1314.9
15.252,-3015.8,1321.7
15.256,-3016.1,1316.7
15.262,-3015.3,1327.3
15.265,-3015.1,1340.6
15.266,-3010.9,1347.6
15.267,-3009.5,1353.2
15.273,-3004.5,1342.1
15.277,-3001,1342
15.275,-3003.9,1327
15.284,-3005.9,1314.1
15.289,-3007.9,1317.8
15.289,-3005.3,1331
15.291,-2998,1326.4
15.301,-2994.3,1301.2
15.297,-2989.3,1294.8
15.302,-2994.9,1306.8
15.305,-2995.1,1312.6
15.308,-2982.1,1320
15.313,-2982.8,1320.9
15.319,-2980.3,1326
15.318,-2985.2,1341.7
15.317,-2987.6,1334.7
15.326,-2984.2,1305.7
15.327,-2990.8,1296.5
15.333,-2996.3,1311.8
15.337,-3001.6,1318.8
15.337,-2995.4,1329.2
15.34,-2992.2,1341.2
15.345,-2989.1,1348.5
15.346,-2979.7,1341.8
15.35,-2982.1,1318
15.351,-2985.8,1315.7
15.355,-2990.5,1318.6
15.358,-2997.8,1313.3
15.364,-3000.2,1322.2
15.363,-2998.5,1326.8
15.364,-3006,1335.2
15.37,-3006.4,1332.5
15.372,-3001,1335.9
15.379,-2992.4,1337.6
15.384,-2985,1339.6
15.383,-2978,1338.2
15.385,-2980.7,1330.4
15.389,-2991.5,1331.5
15.394,-2997.1,1336.2
15.396,-3001.7,1326.8
15.402,-3002.2,1314.3
15.402,-3000.8,1305
15.403,-2995.9,1313.6
15.402,-2994.3,1312.9
15.41,-2986.1,1313.6
15.415,-2983,1311.3
15.415,-2988.9,1318.3
15.415,-2990.3,1319.9
15.423,-2994.6,1296.9
15.428,-3003.3,1302.3
15.431,-3003.4,1306.5
15.433,-2996.5,1310.9
15.434,-2996,1326.3
15.439,-2994.3,1339.5
15.44,-2994.1,1336.2
15.445,-2997.7,1333.3
15.451,-2995.7,1329.2
15.453,-2998.3,1311.4
15.454,-3006.9,1311.3
15.455,-3010.8,1326
15.459,-3007.6,1333.6
15.46,-3002.1,1329.8
15.465,-3001.1,1335.3
15.465,-2996.9,1333.4
15.465,-2990.3,1324.9
15.474,-2996.7,1320.2
15.48,-2996.6,1327.2
15.487,-3001.7,1326.9
15.486,-3008,1326.9
15.484,-3016.6,1338.5
15.488,-3014.5,1334.1
15.489,-3012.3,1345
15.487,-3010.7,1333.3
15.494,-3008.9,1330.2
15.502,-3003.2,1328.1
15.503,-3001.9,1320.1
15.506,-3003.4,1319.8
15.513,-3005.9,1321.7
15.511,-3005.1,1326.3
15.512,-3007.6,1327.7
15.519,-3004,1329
15.521,-3000,1328
15.523,-3003.4,1334.1
15.525,-3000.4,1340.7
15.525,-3000.1,1335.8
15.532,-3001.2,1330.1
15.537,-3000.1,1333.1
15.541,-3000.6,1316.7
15.538,-3004.1,1323.6
15.541,-3013.7,1320.1
15.542,-3016.3,1304.1
15.542,-3011.6,1310.8
15.547,-3012.2,1316.4
15.553,-3011.2,1311.6
15.554,-3005.4,1303.9
15.562,-3002.4,1302.4
15.569,-3009.8,1305.7
15.568,-3014.6,1324.9
15.572,-3017.1,1336.2
15.579,-3020.6,1338.9
15.577,-3021.1,1350.9
15.578,-3023.6,1365.5
15.583,-3021.3,1361.7
15.582,-3020.5,1338.3
15.584,-3021,1324.5
15.591,-3014.6,1315.4
15.595,-3008.4,1318.1
15.592,-3010.6,1305
15.601,-3010.2,1302.3
15.604,-3012.8,1318.3
15.608,-3014.6,1322.5
15.609,-3013.8,1331.4
15.608,-3012.8,1327.8
15.613,-3016.4,1335
15.617,-3019.9,1339.7
15.617,-3014.4,1339.8
15.621,-3004.8,1321.1
15.628,-3004.2,1317.3
15.63,-3009.2,1329.6
15.628,-3006.4,1347.2
15.631,-3008.7,1355.8
15.633,-3011.3,1353.2
15.639,-3011.2,1350.7
15.639,-3010.2,1337.5
15.644,-3005.9,1326.4
15.65,-3005,1333
15.654,-3002.8,1319.3
15.655,-3009.1,1302
15.659,-3007.1,1314.4
15.657,-3008.3,1319.6
15.66,-3005.8,1315.4
15.664,-3012.3,1314.4
15.67,-3019.1,1315
15.671,-3018.5,1318.7
15.675,-3014.2,1329.3
15.672,-3008.2,1336.7
15.677,-3007.3,1336.3
15.68,-3014.8,1323.7
15.682,-3018.8,1315.8
15.684,-3027.5,1308.2
15.688,-3035,1309.4
15.695,-3028.5,1315.2
15.693,-3019.2,1321.2
15.692,-3013,1346.2
15.698,-3002.2,1358.8
15.702,-2994.1,1357.9
15.707,-2978.6,1360.8
15.707,-2974.8,1342.1
15.716,-2971.1,1306.6
15.712,-2976.3,1267.1
15.713,-2984.3,1275.3
15.717,-2991.3,1296.3
15.715,-2986,1308.1
15.722,-2989.7,1312.8
15.723,-2991.8,1316.5
15.725,-2987.8,1347.1
15.732,-2977.1,1364.9
15.735,-2975.3,1343.3
15.739,-2956.8,1341.8
15.739,-2930,1330.6
15.749,-2919.3,1322.5
15.75,-2922.5,1318.8
15.743,-2927,1312.3
15.744,-2933.3,1306.2
15.753,-2924.6,1308.5
15.758,-2912.4,1303
15.757,-2906.4,1300.4
15.76,-2905.5,1317.4
15.765,-2913.3,1319.9
15.762,-2925.8,1327.7
15.77,-2933.2,1337.5
15.769,-2952.8,1330.7
15.772,-2975.9,1338.5
15.78,-2991.9,1344.8
15.78,-3003.6,1339.5
15.782,-3009.7,1324.4
15.785,-3011.6,1317
15.788,-3015.2,1319.7
15.79,-3015.6,1313.5
15.793,-3018.9,1306.8
15.798,-3020.2,1323.2
15.801,-3025,1335.9
15.801,-3025.6,1323.3
15.807,-3024.8,1320.3
15.813,-3027.1,1337.5
15.814,-3028.3,1342.3
15.811,-3029.9,1343.7
15.813,-3024.6,1346.7
15.816,-3025.8,1326.4
15.823,-3029,1313.1
15.823,-3028.8,1313.9
15.827,-3025.5,1315.1
15.827,-3024.4,1310.3
15.824,-3024.9,1293.8
15.827,-3023.2,1307.6
15.833,-3019,1322
15.836,-3014.2,1321.2
15.841,-3011.2,1323.7
15.838,-3019.1,1330.4
15.85,-3025.8,1340
15.853,-3020.7,1345.4
15.853,-3014.4,1342.9
15.856,-3022.3,1334.5
15.861,-3025.3,1336.6
15.862,-3026.2,1339.6
15.862,-3031.4,1336.5
15.86,-3039,1325.3
15.861,-3036.3,1304.9
15.865,-3028.5,1306.8
15.868,-2990.6,1295.4
15.871,-2919.3,1296.2
15.872,-2816.5,1309.6
15.88,-2716.5,1314.9
15.881,-2634.3,1313.9
15.882,-2541,1329.4
15.885,-2414.8,1339
15.89,-2203,1330.9
15.893,-2026.6,1332.6
15.895,-1881.2,1331.2
15.893,-1679,1318.7
15.9,-1470.6,1324.3
15.91,-1337,1332.4
15.91,-1214.7,1326.8
15.908,-1222.9,1334.5
15.911,-1358.2,1338.1
15.914,-1584.8,1316.4
15.915,-1904.2,1302.5
15.923,-2259.3,1286.7
15.928,-2574.5,1293.3
15.93,-2831.2,1323.2
15.93,-3113.5,1324.4
15.934,-3255.8,1321.4
15.931,-3276.6,1327.5
15.936,-3285.2,1319.5
15.937,-3290.3,1302.5
15.937,-3269.3,1311.3
15.938,-3228.6,1310.8
15.948,-3151.5,1317.1
15.948,-3064.7,1317.9
15.943,-3005.2,1311.5
15.951,-2974.4,1313.5
15.954,-2963.7,1310.1
15.956,-2945.7,1324.8
15.957,-2932.4,1324.6
15.96,-2938,1309.2
15.967,-2948.2,1310.1
15.97,-2953,1326.1
15.967,-2956,1334.5
15.966,-2942.3,1330.2
15.973,-2938.3,1311.2
15.976,-2938.3,1299.4
15.983,-2939.9,1307.5
15.979,-2944.8,1305.7
15.976,-2952.6,1318.4
15.984,-2957.3,1329.3
15.988,-2948,1345
15.99,-2940.4,1348.1
15.991,-2934.9,1336.4
15.994,-2935.7,1325.9
15.995,-2936.9,1315.1
15.996,-2934.9,1314
15.999,-2932.7,1314
16.005,-2933.3,1302.2
16.006,-2930.9,1304.4
16.006,-2936.8,1313.5
16.004,-2931,1326.9
16.006,-2927.5,1331.8
16.01,-2927.2,1329
16.009,-2917.4,1320.7
16.017,-2909.6,1301.6
16.022,-2910.8,1300.4
16.027,-2912.5,1309
16.029,-2909.6,1308.7
16.029,-2909.2,1322.2
16.03,-2911,1324.6
16.035,-2907.7,1330.8
16.035,-2909,1329.9
16.037,-2903.8,1326
16.042,-2899.2,1318.5
16.043,-2895.7,1300.5
16.043,-2890,1309.1
16.045,-2890,1302.8
16.052,-2894,1289
16.053,-2890.8,1291.3
16.056,-2885,1292.5
16.055,-2886.2,1304.4
16.059,-2878.4,1301.1
16.058,-2870,1296.2
16.059,-2859.7,1314.8
16.062,-2852.3,1328.5
16.062,-2845.8,1325.6
16.064,-2843.5,1301.4
16.071,-2850.6,1287.6
16.073,-2847.1,1304.1
16.072,-2847,1307.2
16.075,-2845.1,1310.7
16.079,-2838.3,1316.6
16.084,-2825.6,1329.1
16.08,-2808.1,1327.8
16.086,-2800.7,1322.5
16.086,-2796.2,1329.5
16.087,-2795,1334.1
16.089,-2789.2,1335.5
16.087,-2781.7,1331.4
16.093,-2781.5,1330
16.092,-2769.2,1329.2
16.092,-2766.1,1311.9
16.096,-2761.3,1310.6
16.1,-2752.8,1325.1
16.103,-2740.3,1336.6
16.109,-2729.4,1324.4
16.11,-2716,1304.8
16.11,-2707,1304.1
16.111,-2702.1,1321.8
16.115,-2695.6,1329.4
16.118,-2686.4,1323.6
16.119,-2667.5,1326.4
16.119,-2652.2,1330.2
16.122,-2640.1,1312.3
16.126,-2626.9,1301.1
16.128,-2615.1,1300.6
16.131,-2607.2,1311
16.135,-2594.9,1301.1
16.137,-2578,1290.4
16.136,-2562.8,1304
16.138,-2557,1306.7
16.14,-2546.4,1300.2
16.14,-2532,1286.1
16.14,-2515.2,1292.8
16.139,-2495.4,1311.8
16.144,-2476.2,1328.1
16.148,-2462.2,1325.4
16.153,-2443.7,1290.8
16.148,-2436.2,1287.6
16.152,-2437.9,1314.9
16.152,-2437.1,1323.9
16.154,-2425.8,1312.8
16.156,-2414.6,1320.6
16.155,-2406.7,1315.1
16.156,-2398,1310.2
16.165,-2389.1,1311.5
16.166,-2385.4,1303.5
16.17,-2386,1298
16.17,-2386.8,1302.5
16.173,-2385.8,1301.7
16.177,-2392,1307.6
16.182,-2405.5,1313.3
16.175,-2411.7,1309.3
16.179,-2419.9,1307
16.178,-2432.7,1312.4
16.178,-2443.3,1305.9
16.182,-2459.3,1303.1
16.19,-2480.5,1289
16.188,-2502.7,1295.9
16.189,-2528.3,1293.3
16.191,-2556.3,1287.7
16.193,-2586.8,1301.8
16.192,-2618.4,1315.8
16.192,-2643.9,1322.6
16.193,-2664.3,1339.2
16.199,-2690.7,1333.3
16.202,-2714.2,1333.4
16.203,-2741.9,1323.9
16.201,-2756.3,1313.7
16.204,-2776.5,1302.5
16.205,-2800,1300.2
16.204,-2821.5,1321.5
16.211,-2839.6,1334.7
16.209,-2861.4,1343.8
16.21,-2882.7,1341.2
16.215,-2888.3,1328.5
16.218,-2899,1320.2
16.217,-2906.3,1299
16.219,-2914.8,1298.6
16.223,-2918.4,1306.3
16.224,-2932.1,1338.2
16.226,-2946,1345.1
16.223,-2951.6,1335.4
16.227,-2961.5,1330.3
16.231,-2959.8,1337.8
16.226,-2956,1336.6
16.227,-2952.6,1338.1
16.232,-2952.4,1337.6
16.234,-2951.4,1331.8
16.238,-2960,1324.5
16.241,-2974.4,1316.3
16.243,-2983,1321.4
16.239,-2992.8,1325.8
16.238,-2994.4,1328.7
16.245,-2990.9,1330.3
16.248,-2982.8,1331.1
16.245,-2984.5,1307.2
16.248,-2984.3,1300.1
16.251,-2982.4,1306.9
16.251,-2987.2,1307.8
16.252,-2989.7,1311.6
16.251,-2997,1313.6
16.254,-2998,1303.3
16.257,-2997.3,1305.8
16.258,-2992.3,1317.2
16.261,-2991.8,1321.1
16.259,-2988.7,1296.8
16.263,-2982.2,1302.5
16.262,-2983.3,1324.7
16.266,-2992.1,1325.1
16.268,-2997.3,1310.6
16.268,-2994.8,1315.7
16.268,-3003.5,1335.5
16.272,-3011,1348
16.271,-3011.4,1348.9
16.266,-3011.8,1334.3
16.268,-3015.7,1335.5
16.273,-3011,1346.4
16.277,-3008.3,1350.9
16.283,-3008.1,1338.6
16.281,-3005.6,1329.8
16.279,-3001.5,1320.4
16.279,-2999.6,1294.7
16.282,-2995.7,1293.8
16.287,-3001.3,1308.5
16.286,-2994.8,1312.8
16.292,-2989.9,1299.8
16.288,-2981.4,1320.7
16.286,-2979.6,1344.4
16.287,-2979.3,1344.8
16.286,-2982.1,1346.7
16.288,-2990.2,1338.8
16.292,-2989.3,1348.2
16.292,-2991.4,1348.9
16.298,-2994.3,1338.8
16.302,-2992.1,1318.3
16.295,-2987.5,1309.4
16.293,-2980.4,1308.4
16.3,-2977.2,1310.9
16.299,-2975.7,1300.8
16.298,-2964.1,1308.8
16.304,-2972.5,1325.2
16.305,-2982.9,1326.1
16.306,-2986.3,1329
16.306,-2984.2,1314.5
16.306,-2985.9,1323.8
16.306,-2981.9,1341.7
16.304,-2977.4,1343.4
16.31,-2973.4,1337
16.311,-2972,1325.4
16.312,-2977.6,1331.7
16.317,-2980,1331
16.316,-2977.6,1312.8
16.315,-2976.2,1307.6
16.313,-2979.2,1313.7
16.31,-2978.9,1329.4
16.317,-2972.6,1343.5
16.319,-2965.3,1339
16.32,-2961.8,1325.4
16.327,-2959.7,1333.6
16.325,-2960.4,1329.2
16.324,-2973.5,1316.2
16.326,-2979.8,1319.8
16.323,-2986.3,1332.8
16.324,-2986.2,1324.8
16.33,-2975.1,1335.3
16.332,-2974,1343.5
16.332,-2973,1336.1
16.333,-2972.4,1329.4
16.332,-2975.4,1314.1
16.334,-2976.3,1317.9
16.332,-2977.2,1311
16.337,-2987.8,1291.6
16.337,-2993.3,1297.2
16.337,-2985.3,1312.2
16.337,-2984.1,1321.3
16.335,-2983.8,1327.2
16.337,-2980.3,1337.3
16.343,-2981.3,1341.7
16.343,-2981.4,1350.7
16.342,-2978.9,1342
16.342,-2978.6,1318.4
16.347,-2978.7,1318.1
16.346,-2984.9,1326.8
16.345,-2992.3,1333.3
16.35,-2994.7,1339.7
16.349,-2989.8,1363.8
16.345,-2980.5,1376.8
16.343,-2973.4,1351
16.35,-2974.8,1332.7
16.35,-2979.3,1312.4
16.349,-2983,1312.5
16.351,-2983.7,1309.6
16.354,-2986.5,1298.2
16.354,-2991.4,1321.9
16.358,-2994.6,1337.6
16.358,-2993.9,1341.1
16.354,-2986.9,1330.9
16.356,-2982,1320.8
16.355,-2987.7,1335
16.36,-2985.4,1333.5
16.356,-2989.7,1315.6
16.353,-2993.2,1319.4
16.357,-2995.3,1320.1
16.36,-3003,1322
16.359,-3000.5,1320.2
16.36,-2994.1,1324.1
16.363,-2992.5,1323.8
16.362,-2995.9,1336
16.36,-2986.6,1327.9
16.361,-2987.7,1330.4
16.365,-2989.1,1330.1
16.364,-2989.7,1304.6
16.362,-2997.7,1306.1
16.36,-3001.6,1308.6
16.362,-2998.1,1308.9
16.366,-2997.5,1315.9
16.372,-2997.1,1310.4
16.367,-2985.8,1314.1
16.369,-2986.8,1319.7
16.366,-2986.3,1322.6
16.372,-2990.1,1330.6
16.375,-2997,1337.3
16.376,-2996.1,1336.5
16.377,-2997.3,1345.8
16.378,-2999.7,1349.3
16.377,-2995.2,1340.4
16.37,-2992.9,1333.9
16.377,-2991.7,1323.8
16.381,-2984.1,1331.4
16.379,-2986.4,1335.5
16.381,-2987.4,1333.3
16.382,-2987.2,1334.7
16.381,-2992,1332.2
16.381,-3000.8,1315.4
16.377,-3007,1319
16.379,-3009.1,1317.2
16.38,-3010.6,1311.9
16.381,-3003.4,1316.4
16.378,-2992.1,1320.5
16.374,-2987,1331.9
16.38,-2985.9,1328.7
16.38,-2988.2,1314.5
16.383,-2994,1316.1
16.383,-2997.5,1324.6
16.385,-2997.3,1333.8
16.385,-2998.2,1318.2
16.386,-3005.4,1307.9
16.389,-3001.7,1321.9
16.388,-2997.1,1326.1
16.383,-2989.1,1322.5
16.383,-2992.8,1316.6
16.387,-2992.2,1331.5
16.39,-2993,1353.2
16.389,-2996.8,1360.4
16.389,-3000.3,1346.7
16.394,-2997.7,1321.9
16.397,-2996.8,1301.3
16.391,-2998.1,1286.6
16.39,-2993.5,1280.2
16.391,-2993.2,1283.5
16.391,-2989.7,1317.5
16.392,-2991.1,1336.8
16.391,-2994.7,1336.3
16.395,-2995.8,1322.7
16.399,-2998.3,1332.9
16.401,-3002.7,1341.8
16.399,-3005.4,1337.1
16.397,-3006.7,1334.5
16.396,-3008.6,1331.8
16.398,-3007.4,1343.1
16.402,-3000.1,1339.3
16.4,-2998.2,1339.9
16.399,-2993.9,1332.6
16.403,-2994.4,1328.4
16.4,-3000.5,1328.3
16.395,-2998.2,1318.8
16.399,-2999.8,1311.7
16.396,-3005.2,1326.1
16.398,-3003.8,1328.8
16.402,-3005,1328.3
16.4,-3005.1,1332.5
16.4,-3002.4,1327.6
16.402,-2998.2,1338.2
16.401,-2988.9,1336.8
16.4,-2981.9,1329.6
16.404,-2981.8,1321.7
16.405,-2973.5,1324.8
16.407,-2973.9,1332.6
16.404,-2966.6,1344.6
16.407,-2970.4,1333.3
16.405,-2973.3,1321.6
16.403,-2971.5,1301.4
16.408,-2973.6,1302.2
16.405,-2976.7,1324.6
16.406,-2979.7,1329.7
16.408,-2972.4,1307.8
16.411,-2967.8,1293.1
16.414,-2963.6,1302.1
16.405,-2940.4,1319.9
16.403,-2906.7,1318.2
16.408,-2892.2,1318
16.412,-2893.6,1325.5
16.413,-2893.1,1341.2
16.417,-2899.2,1340.7
16.417,-2904.2,1332.7
16.414,-2906.7,1324.3
16.412,-2907.5,1321
16.406,-2912.5,1316.8
16.409,-2916.8,1322
16.409,-2927.3,1339.6
16.407,-2934.4,1342.7
16.416,-2939.5,1325.9
16.416,-2957.3,1317.3
16.412,-2980.6,1322.4
16.412,-2993.5,1322.5
16.412,-3009.4,1314.6
16.411,-3018.5,1316
16.416,-3014.7,1325.8
16.418,-3017.4,1326.1
16.416,-3019.4,1326.8
16.417,-3014,1331.9
16.417,-3014.6,1324.3
16.415,-3015.2,1317.1
16.411,-3014.2,1320.2
16.414,-3017.7,1325.3
16.416,-3024.2,1316
16.415,-3036.7,1303.6
16.417,-3040.5,1311
16.417,-3035.3,1316.4
16.418,-3027.2,1318.8
16.418,-3016.4,1324.9
16.415,-3008.8,1327.9
16.419,-3004,1307.2
16.415,-3005.1,1297.7
16.414,-3003.1,1313.1
16.418,-3007.3,1322
16.42,-3013.9,1328.6
16.422,-3016.4,1334.8
16.422,-3022.9,1325.4
16.422,-3025.8,1337.8
16.429,-3022.9,1332.3
16.426,-3010.5,1305.8
16.421,-3005.7,1294.1
16.425,-3011,1296.9
16.421,-3026.5,1310
16.424,-3035.6,1334.3
16.421,-3042.4,1345
16.424,-3038.3,1357.4
16.425,-2995.2,1368.3
16.427,-2912.5,1360.2
16.42,-2806.1,1348
16.418,-2702.8,1330.7
16.421,-2613.7,1324.4
16.427,-2512.7,1317.8
16.427,-2388.2,1303.2
16.426,-2199.9,1300.8
16.423,-2038.1,1318.4
16.425,-1893.6,1334.7
16.426,-1683.7,1321.2
16.422,-1478.3,1327.6
16.423,-1339.4,1341.6
16.422,-1198.2,1346.4
16.422,-1201.1,1331.7
16.422,-1343.6,1315.8
16.424,-1570.6,1316.3
16.425,-1900.1,1306.1
16.427,-2266,1297.8
16.43,-2575.6,1297.5
16.424,-2833.2,1315.3
16.421,-3117.6,1331
16.42,-3259.3,1319.8
16.425,-3275.7,1309.8
16.424,-3277.8,1307.7
16.42,-3283.2,1297.8
16.423,-3265.8,1296.5
16.422,-3209.6,1303.8
16.423,-3139.5,1316.1
16.427,-3074.3,1328.1
16.419,-3022.3,1345.3
16.417,-2992,1347.4
16.417,-2969.6,1328.7
16.418,-2954.7,1311.7
16.429,-2941.7,1311.2
16.427,-2943.1,1313.6
16.421,-2944.3,1324.7
16.428,-2944.8,1319.6
16.427,-2947.6,1296.3
16.426,-2953.9,1271.7
16.428,-2950,1273.2
16.425,-2950.2,1293.5
16.422,-2958.7,1310.7
16.422,-2950.1,1316.1
16.423,-2939.5,1321.6
16.418,-2942.3,1329.2
16.415,-2944.8,1334.8
16.417,-2942.8,1324.7
16.42,-2942.3,1319.4
16.424,-2939.6,1318.1
16.42,-2942.3,1331
16.422,-2947.7,1341.5
16.42,-2949.4,1334.5
16.424,-2949.4,1319.8
16.426,-2941.2,1312.1
16.423,-2935.4,1319.9
16.42,-2929.9,1318.2
16.419,-2926.5,1304.3
16.419,-2920.8,1292
16.417,-2917.6,1300.9
16.418,-2918.3,1328.3
16.418,-2923,1314.7
16.413,-2936.2,1306.8
16.413,-2929.7,1305
16.414,-2925,1302.9
16.417,-2911.1,1305.5
16.421,-2907.6,1318.7
16.417,-2904.9,1296.6
16.419,-2894.7,1290.2
16.416,-2898.4,1297.8
16.417,-2898.9,1305.5
16.415,-2897.9,1320.9
16.41,-2900.3,1320.5
16.412,-2896.3,1313.3
16.412,-2886.3,1317.8
16.42,-2880.9,1316.1
16.417,-2880.9,1316.2
16.417,-2874.4,1319.4
16.415,-2873.5,1326.4
16.414,-2874,1329
16.419,-2877.5,1313
16.412,-2869.7,1301.2
16.417,-2862.7,1301.9
16.415,-2858.8,1303.5
16.408,-2849.5,1300.7
16.412,-2836.1,1298.9
16.413,-2838.6,1319.8
16.412,-2832.1,1329.9
16.41,-2830.8,1337.3
16.411,-2828.8,1328.4
16.412,-2826.1,1322.1
16.415,-2813.8,1326.5
16.416,-2813.3,1314.9
16.417,-2810.3,1312
16.41,-2795.3,1323.3
16.412,-2784.8,1313.8
16.41,-2772,1309.6
16.411,-2766.6,1320.6
16.412,-2761.2,1321.6
16.41,-2752.9,1310.2
16.414,-2746.8,1315.6
16.41,-2741.7,1323.1
16.408,-2732.4,1306.9
16.41,-2722.4,1304.9
16.408,-2702,1306.5
16.405,-2680.9,1299.1
16.407,-2670.3,1283.9
16.41,-2664.2,1289
16.408,-2655.9,1311.9
16.413,-2649.8,1310.2
16.409,-2637,1307.6
16.404,-2625.2,1297.6
16.404,-2608.6,1291.9
16.404,-2596.9,1288.2
16.411,-2587.8,1279.4
16.411,-2568.3,1279.2
16.41,-2549.1,1293.7
16.403,-2530.8,1308.7
16.406,-2513.7,1302.1
16.407,-2499.2,1311.1
16.408,-2495.1,1313.3
16.408,-2489,1276.4
16.408,-2472,1286.9
16.408,-2464.4,1294.2
16.409,-2450.2,1309
16.409,-2434.8,1315.3
16.413,-2419,1326.6
16.409,-2409.7,1304.2
16.401,-2407.6,1275
16.401,-2405.7,1287.3
16.405,-2402.5,1294
16.406,-2397.7,1285.6
16.404,-2395.4,1290.1
16.401,-2392.7,1305.7
16.397,-2395.2,1314.4
16.397,-2389.9,1304.6
16.4,-2388.6,1304.4
16.397,-2385.7,1310.3
16.401,-2395.3,1295.1
16.401,-2409.3,1292.1
16.406,-2422.5,1289.7
16.405,-2446.3,1306.7
16.402,-2462.2,1304.3
16.4,-2477.4,1295.5
16.398,-2503.2,1298
16.392,-2528,1299.1
16.391,-2546.7,1303.1
16.394,-2561.1,1303.3
16.401,-2592.4,1312.5
16.4,-2622.9,1333.7
16.397,-2642.6,1334.1
16.392,-2671.3,1317.5
16.398,-2702.9,1314.2
16.398,-2734.1,1326
16.396,-2751.1,1342.9
16.398,-2770,1336.6
16.395,-2784.8,1317.1
16.395,-2792.3,1308.9
16.397,-2809.6,1313.3
16.395,-2827.2,1307.3
16.394,-2842.9,1309
16.393,-2864.1,1309.9
16.392,-2886,1316.6
16.392,-2904.3,1324.3
16.392,-2919.1,1317.7
16.39,-2925.6,1297.7
16.392,-2937.5,1281.1
16.39,-2936.5,1290.6
16.392,-2938,1296.9
16.392,-2941.2,1309.7
16.392,-2941.9,1318.3
16.388,-2948.9,1319.3
16.388,-2956,1319.3
16.391,-2964,1320.6
16.391,-2964.7,1328.3
16.391,-2966.1,1319.9
16.391,-2968.5,1299.7
16.392,-2971.2,1300
16.389,-2970.7,1313.3
16.389,-2972,1312.4
16.387,-2974.1,1307.2
16.384,-2976.9,1315.1
16.382,-2983.6,1326.8
16.386,-2988.4,1333.9
16.385,-2986.4,1335.8
16.383,-2981.1,1334.9
16.383,-2976.5,1334
16.383,-2975.7,1321.9
16.384,-2979.1,1309
16.383,-2980.4,1309.8
16.386,-2982.3,1310.5
16.385,-2986.4,1304.3
16.379,-2988.8,1302.3
16.38,-2983,1316.6
16.382,-2977.8,1323.8
16.382,-2983.3,1323.8
16.379,-2980,1317
16.377,-2979.1,1307.2
16.374,-2979,1309.7
16.373,-2980.1,1318.7
16.378,-2982.2,1310.3
16.377,-2981.8,1292.3
16.379,-2983.8,1307.7
16.378,-2990.8,1333
16.375,-2986.4,1341.3
16.373,-2983.1,1332.4
16.375,-2981.7,1324.2
16.374,-2974.2,1323.9
16.372,-2969.9,1320
16.372,-2966.2,1312.6
16.375,-2963.5,1308
16.375,-2971.5,1312.8
16.374,-2977,1312.4
16.374,-2981.8,1321.7
16.37,-2980.8,1333.5
16.369,-2979.6,1324.3
16.372,-2975.9,1302.4
16.367,-2970.4,1301.9
16.373,-2963,1297.5
16.372,-2958.2,1293.8
16.372,-2957,1305.4
16.374,-2957,1321.2
16.373,-2962,1304.2
16.374,-2956.3,1299.4
16.376,-2959.9,1299.5
16.37,-2962.2,1302.6
16.364,-2956.1,1322.7
16.362,-2953.3,1338.2
16.363,-2946.8,1339.4
16.361,-2944.9,1333.1
16.362,-2948,1331.2
16.359,-2942.4,1340.3
16.365,-2938,1338.4
16.366,-2941.7,1314
16.363,-2948.9,1311
16.361,-2949.4,1316.9
16.363,-2948.7,1321.9
16.364,-2950.4,1321.5
16.361,-2947.4,1317.5
16.359,-2940.7,1310.7
16.364,-2938.5,1303.8
16.369,-2931.1,1301.5
16.363,-2934.2,1299.9
16.356,-2935.9,1309.3
16.356,-2939.7,1313.7
16.359,-2942.2,1318.8
16.357,-2942.7,1332.9
16.358,-2938,1349.5
16.355,-2928,1354.5
16.354,-2926,1349
16.361,-2931.8,1343
16.353,-2938,1336.3
16.348,-2938,1330.9
16.349,-2941,1337.7
16.354,-2938.7,1347.8
16.356,-2942.4,1351.8
16.355,-2942.8,1330.4
16.353,-2943.8,1309.1
16.352,-2946.1,1308.8
16.355,-2932.5,1324.8
16.355,-2935.2,1309.1
16.351,-2936.8,1303.2
16.352,-2929.3,1311.8
16.353,-2936.1,1325.7
16.354,-2940.5,1327.6
16.347,-2941.6,1318.1
16.349,-2940.9,1318.5
16.35,-2940.2,1329.7
16.344,-2944,1318
16.344,-2943.2,1316.7
16.341,-2937.3,1320.2
16.341,-2940.5,1324.1
16.343,-2937.9,1319.1
16.346,-2935.4,1306.8
16.345,-2940.6,1296.5
16.34,-2945.5,1292.2
16.338,-2947.5,1297.7
16.339,-2945.7,1301.7
16.341,-2941.5,1298.4
16.34,-2938.1,1304.3
16.336,-2935.2,1311.9
16.335,-2939.8,1316.7
16.334,-2945.5,1314.3
16.339,-2946.1,1302.5
16.342,-2943.1,1295.8
16.344,-2947.9,1301.9
16.338,-2946.9,1302
16.336,-2944.2,1300.9
16.334,-2942.6,1291
16.334,-2937.3,1297.8
16.337,-2929.9,1308.3
16.337,-2926.3,1325.4
16.335,-2926.8,1342.8
16.336,-2934.9,1345.5
16.335,-2935.5,1354
16.328,-2942.3,1343.5
16.328,-2940.3,1331.1
16.331,-2939.6,1330.6
16.328,-2941.9,1317.4
16.326,-2937.7,1296.8
16.327,-2936.2,1297
16.328,-2932.3,1302.3
16.331,-2932.4,1315.3
16.331,-2934.3,1313.3
16.331,-2933.7,1312.5
16.327,-2934.5,1329.4
16.324,-2944.2,1337
16.325,-2944.1,1326.9
16.327,-2944.2,1329
16.324,-2939.3,1326.6
16.325,-2935.2,1320.7
16.326,-2929.2,1317.7
16.326,-2930.6,1322.3
16.329,-2934.8,1329.9
16.326,-2935.4,1326.6
16.32,-2942.1,1324.8
16.318,-2951,1342.1
16.318,-2950.4,1346.2
16.313,-2948.2,1342.1
16.32,-2939.3,1342.1
16.323,-2930,1323
16.32,-2929.6,1309.4
16.32,-2933.7,1303.1
16.318,-2930.7,1309.9
16.313,-2928.6,1309.5
16.311,-2927,1315.4
16.314,-2936.7,1322.6
16.314,-2944.7,1321.2
16.314,-2949.5,1308.2
16.313,-2942.3,1299.9
16.312,-2937.7,1291.8
16.308,-2941.1,1288.3
16.308,-2937.1,1297.4
16.314,-2934,1278
16.31,-2935.6,1284.8
16.308,-2941.6,1300.1
16.306,-2943.8,1324.6
16.302,-2943,1329.3
16.301,-2939.9,1332.3
16.3,-2935.7,1349.7
16.298,-2933,1336.9
16.298,-2926.5,1329
16.302,-2922,1317.9
16.301,-2921.6,1320
16.303,-2922.3,1324.2
16.293,-2936.8,1325.2
16.289,-2942.8,1335.3
16.289,-2935,1328.1
16.289,-2935.5,1300.6
16.288,-2939.8,1295.7
16.28,-2941.1,1304.2
16.279,-2942.7,1319
16.282,-2933.9,1322
16.285,-2927.3,1324.1
16.284,-2921.1,1329.8
16.28,-2915.4,1323.2
16.285,-2911.6,1308.8
16.281,-2908.2,1304.6
16.279,-2902.3,1312.5
16.28,-2898.9,1324.1
16.274,-2893.2,1325.8
16.272,-2894.1,1316.3
16.272,-2891.8,1323.5
16.274,-2888,1319
16.273,-2886.6,1312.6
16.271,-2890.7,1315.9
16.269,-2891.7,1317.6
16.265,-2888.8,1312.9
16.259,-2879.7,1315.2
16.259,-2860,1314.8
16.255,-2836.9,1308.9
16.26,-2831.9,1301.7
16.259,-2822.7,1299.1
16.252,-2817.7,1312.6
16.25,-2824.6,1303.9
16.252,-2821.3,1306.3
16.25,-2825,1304.4
16.249,-2832.3,1294.2
16.244,-2825.2,1303
16.24,-2823.7,1319.9
16.237,-2835.5,1315.8
16.236,-2845.9,1290.2
16.236,-2858.2,1270.7
16.236,-2874.1,1259.3
16.233,-2886.7,1272.1
16.228,-2908.6,1292.7
16.23,-2927.2,1288.9
16.232,-2934.1,1272.3
16.229,-2941.5,1288.1
16.225,-2945.8,1316.7
16.224,-2943.4,1324.5
16.222,-2935.8,1320.7
16.218,-2918.4,1343.7
16.217,-2917.5,1332.4
16.215,-2912.6,1316.5
16.216,-2910.1,1323.2
16.212,-2919.9,1313.4
16.207,-2917.3,1321.4
16.209,-2926.8,1321.1
16.204,-2926.8,1314.8
16.205,-2932.6,1315.9
16.201,-2928.6,1330.1
16.202,-2918.9,1318.1
16.203,-2911.9,1296.7
16.201,-2906.9,1290.4
16.199,-2919.1,1283.2
16.197,-2912.8,1302.3
16.196,-2911,1312.3
16.193,-2917.3,1320.6
16.189,-2914.8,1327.6
16.187,-2914.6,1316.7
16.19,-2912,1319.6
16.188,-2914.1,1323.3
16.185,-2917.8,1326.7
16.188,-2923.2,1325.7
16.184,-2923.4,1321.6
16.18,-2923.2,1320.9
16.18,-2930,1341.9
16.179,-2933.2,1326.5
16.181,-2887,1319.3
16.177,-2815.6,1324.3
16.171,-2711.7,1331
16.172,-2606.3,1334.3
16.172,-2518.6,1329.9
16.173,-2428.5,1313.2
16.174,-2299.2,1300.4
16.165,-2099,1307.6
16.163,-1920.6,1303
16.167,-1770.7,1299.4
16.164,-1571.3,1294
16.164,-1376.9,1298.5
16.168,-1227.9,1310.7
16.163,-1100,1313.8
16.159,-1107.8,1319.6
16.157,-1250.8,1315.6
16.157,-1473.4,1312.8
16.161,-1796,1308.1
16.156,-2162.2,1301.1
16.155,-2452.6,1305.9
16.156,-2717.1,1311.6
16.154,-3001.7,1310.4
16.152,-3141.1,1287.5
16.15,-3151.2,1262.2
16.151,-3155.1,1252.3
16.152,-3164.4,1261.6
16.148,-3159.5,1262.4
16.148,-3113.7,1274.8
16.149,-3034.3,1300.5
16.147,-2967,1320.6
16.147,-2901.9,1311.3
16.141,-2857.5,1300.6
16.133,-2847.5,1294.7
16.132,-2838.6,1291
16.136,-2824.2,1293.1
16.141,-2818.1,1293.6
16.135,-2815.5,1300
16.138,-2824.1,1296.7
16.14,-2822.2,1294.3
16.139,-2822.2,1325.6
16.14,-2826,1335.3
16.137,-2824.6,1330.5
16.138,-2825.6,1332.8
16.134,-2814.1,1324.3
16.132,-2806.9,1328.7
16.133,-2806.3,1328.6
16.125,-2809.4,1306.4
16.123,-2812.3,1312.3
16.128,-2807.4,1320.1
16.131,-2810.7,1301
16.132,-2815.3,1294
16.13,-2810.8,1287.5
16.125,-2824.8,1301.1
16.122,-2819.5,1293.2
16.124,-2805,1293.8
16.12,-2798.6,1281.8
16.119,-2801.5,1278.1
16.12,-2798.7,1291.6
16.125,-2792,1292
16.122,-2783.2,1272.7
16.119,-2781.2,1274.1
16.122,-2784.6,1285.4
16.119,-2786.9,1293.9
16.119,-2793.5,1322.4
16.125,-2784.4,1322.8
16.119,-2771.6,1299.3
16.112,-2763.6,1303.4
16.116,-2758.9,1304.5
16.117,-2756.2,1298.9
16.113,-2755.8,1295.7
16.118,-2755.5,1296.9
16.116,-2766.9,1297.9
16.115,-2762.3,1295.1
16.109,-2766,1290.1
16.113,-2756.4,1288.7
16.114,-2752.7,1273.8
16.116,-2745.9,1265.4
16.122,-2733.8,1266.9
16.12,-2732,1274.1
16.114,-2723.3,1293.1
16.115,-2723.7,1288.4
16.112,-2726,1294.7
16.113,-2718.6,1298.6
16.112,-2706,1298.6
16.109,-2707.2,1319.7
16.108,-2703.9,1319.2
16.113,-2684.6,1296.4
16.112,-2673.3,1299.4
16.108,-2674.2,1307.7
16.108,-2683.6,1296.8
16.112,-2664.6,1297.8
16.108,-2657.8,1292.6
16.108,-2656.6,1289.4
16.109,-2648.7,1286.4
16.108,-2638.2,1305.8
16.108,-2635.5,1316
16.106,-2633.8,1295.3
16.11,-2625.9,1291.9
16.108,-2621.8,1277.3
16.107,-2611.8,1273
16.107,-2605,1290.3
16.107,-2600.8,1291.6
16.113,-2590.4,1292.8
16.112,-2576.8,1296.4
16.108,-2568.8,1296.2
16.105,-2556,1314.3
16.101,-2532.2,1316.8
16.103,-2514.5,1303.8
16.106,-2513,1279.5
16.106,-2503.1,1259.1
16.108,-2487.2,1268.2
16.109,-2479.9,1274.4
16.11,-2471.5,1272.8
16.107,-2450.9,1281.5
16.111,-2444.1,1284.1
16.111,-2433.5,1290.3
16.112,-2414,1291.5
16.109,-2390.9,1286.3
16.111,-2373.8,1283.3
16.113,-2361.1,1265.8
16.109,-2350.5,1276.7
16.111,-2344.4,1292.2
16.112,-2334.9,1311.1
16.114,-2320.3,1316.2
16.112,-2308.9,1303.4
16.112,-2296.5,1301.7
16.11,-2283.6,1304.1
16.107,-2268.3,1282.9
16.108,-2264.9,1279.2
16.111,-2254.8,1272.3
16.114,-2264.5,1284.3
16.116,-2266.2,1288.6
16.116,-2257.4,1261.3
16.115,-2268.4,1273.5
16.113,-2257.7,1304
16.117,-2248.5,1287.8
16.119,-2255.3,1286.8
16.117,-2256.5,1298.2
16.115,-2270.9,1290.1
16.113,-2283.8,1280.1
16.118,-2294.6,1276.3
16.12,-2304.2,1262.1
16.114,-2333.2,1277.7
16.112,-2358.7,1289.7
16.113,-2375,1283.8
16.115,-2406.5,1281.7
16.114,-2438.1,1290.4
16.115,-2453,1298
16.119,-2467.2,1299.2
16.121,-2496.1,1289.5
16.121,-2504.6,1295.7
16.121,-2534.6,1292.1
16.119,-2566.4,1272.4
16.121,-2591.3,1289.9
16.12,-2620.7,1297.9
16.122,-2642.2,1315.4
16.122,-2655.3,1321.5
16.117,-2673.2,1314.9
16.123,-2685.4,1318.5
16.127,-2692.4,1323.3
16.126,-2702.8,1306.6
16.123,-2718.5,1289.2
16.126,-2731.4,1286.3
16.126,-2744.3,1286.9
16.127,-2757.8,1290.8
16.133,-2765.6,1290
16.132,-2777.6,1295
16.129,-2792.7,1310.1
16.128,-2801.5,1307.6
16.131,-2802.2,1309.1
16.135,-2799.2,1310.9
16.135,-2807.5,1316.3
16.131,-2808.4,1303
16.128,-2797.1,1309.3
16.127,-2805.1,1329.1
16.129,-2818.1,1302.4
16.128,-2814.4,1296.1
16.131,-2813.8,1299.1
16.138,-2807,1300.4
16.137,-2813.6,1306.8
16.131,-2824.7,1318.9
16.131,-2816.7,1328.8
16.132,-2821,1322
16.132,-2830,1300.5
16.138,-2822.2,1281.1
16.136,-2830.7,1292.6
16.137,-2834,1301.6
16.136,-2821.3,1299.1
16.135,-2820.7,1309.5
16.132,-2816.6,1311.8
16.135,-2822.5,1312.6
16.141,-2835,1310.5
16.14,-2827.5,1306.4
16.139,-2837.8,1301.3
16.138,-2843.2,1299.4
16.14,-2847.4,1310.3
16.141,-2848.1,1340.2
16.137,-2828.8,1334.7
16.139,-2829,1311
16.14,-2823.2,1320.5
16.144,-2825.3,1334.2
16.144,-2831.4,1325
16.146,-2835.2,1327.8
16.145,-2843.3,1327.7
16.146,-2842.9,1297.9
16.147,-2842.4,1273.8
16.149,-2837.5,1287.2
16.146,-2828.6,1291.5
16.147,-2828,1304.7
16.149,-2832.5,1311.5
16.149,-2833.2,1301.1
16.152,-2824.8,1290.6
16.149,-2803.8,1279.1
16.147,-2811.9,1284.7
16.145,-2820.4,1277.7
16.145,-2822.4,1299.8
16.149,-2827.8,1323.4
16.15,-2827,1325.4
16.149,-2816.8,1321.5
16.152,-2815.4,1334.5
16.155,-2808.3,1346.9
16.16,-2795.5,1342
16.162,-2799.1,1345.7
16.158,-2807,1355.7
16.162,-2811.7,1360.2
16.161,-2809.2,1345.6
16.16,-2811.2,1334.9
16.16,-2808.4,1328.5
16.157,-2800.1,1326.8
16.158,-2799.5,1322.4
16.161,-2788.2,1312.6
16.164,-2786.1,1309.2
16.164,-2791.1,1304.2
16.166,-2778,1293.9
16.168,-2783.3,1292
16.167,-2809.5,1304
16.165,-2796.4,1304
16.167,-2794.6,1317.4
16.163,-2807.6,1319.1
16.166,-2798.6,1300.3
16.166,-2786.2,1299.5
16.165,-2798.8,1329.6
16.173,-2792.7,1329.8
16.17,-2785.5,1303.2
16.167,-2787.7,1295.6
16.167,-2786.8,1278.2
16.17,-2799.1,1300.1
16.176,-2798,1328.9
16.175,-2789.3,1329.8
16.176,-2789.7,1328.2
16.174,-2794.3,1321.7
16.178,-2786.3,1306.6
16.179,-2781.7,1284.8
16.177,-2786.1,1262.2
16.18,-2795.8,1270.7
16.179,-2787.9,1296.1
16.179,-2793.6,1293.5
16.18,-2798.2,1294.1
16.182,-2790.4,1310.9
16.18,-2781.7,1320.6
16.182,-2780.2,1308.2
16.185,-2782.3,1323
16.186,-2785.6,1338.6
16.188,-2779.5,1315.6
16.183,-2790.1,1295
16.187,-2803.6,1309.7
16.188,-2801.2,1329.3
16.189,-2807.2,1328.6
16.187,-2806.5,1328.1
16.19,-2803.8,1342.4
16.195,-2782.6,1346.3
16.195,-2785.2,1343.5
16.192,-2803,1336.5
16.193,-2809.3,1337.6
16.197,-2811.9,1324.6
16.193,-2810.9,1305.4
16.193,-2815.1,1299.1
16.195,-2812.7,1295.8
16.195,-2807.9,1310.7
16.201,-2816.9,1307.1
16.206,-2800.9,1308
16.207,-2789.8,1298.5
16.199,-2796.1,1298.9
16.2,-2798.4,1318.7
16.203,-2793.7,1307
16.201,-2810,1298.4
16.201,-2814.1,1323
16.202,-2805.4,1339.6
16.205,-2815.6,1320.7
16.208,-2802.6,1309.3
16.208,-2796.9,1297.4
16.206,-2816.8,1306.2
16.206,-2805.4,1321
16.211,-2788.3,1306.6
16.214,-2808.4,1285.5
16.216,-2813.9,1305.3
16.216,-2809.2,1322.6
16.216,-2809.3,1316.5
16.216,-2806,1313.7
16.221,-2805,1318.6
16.22,-2807.5,1315.3
16.216,-2799.9,1312.2
16.219,-2794,1298.8
16.216,-2790.2,1288.5
16.22,-2794.3,1292.3
16.222,-2805.2,1303.4
16.223,-2795,1305.2
16.224,-2803.7,1309.9
16.223,-2807.7,1308.4
16.224,-2808.1,1311.2
16.226,-2822.7,1285.4
16.223,-2813.4,1257.6
16.226,-2809.2,1301.2
16.23,-2807.9,1319.6
16.23,-2805.8,1331.2
16.226,-2800.7,1334
16.226,-2805.9,1339.7
16.23,-2831.7,1347.5
16.235,-2829.1,1336.5
16.233,-2816.5,1315.3
16.23,-2809.8,1318.7
16.235,-2807.4,1318.6
16.237,-2797.1,1287.3
16.235,-2796.1,1287.8
16.233,-2776.3,1314.8
16.235,-2780.7,1314.4
16.236,-2788.6,1317.7
16.237,-2800.9,1315.5
16.238,-2799.4,1319.5
16.237,-2793.2,1333.1
16.234,-2777.4,1329.8
16.236,-2782.1,1311
16.236,-2794.1,1305.9
16.24,-2789.9,1295
16.244,-2791.9,1290.6
16.247,-2786.4,1285.9
16.247,-2764.3,1293.3
16.243,-2733.2,1322.6
16.249,-2719.5,1328.4
16.252,-2723.9,1326.2
16.247,-2723.9,1306.6
16.244,-2717.5,1295.5
16.247,-2715.6,1283.8
16.248,-2719.5,1285.7
16.247,-2717.3,1295.2
16.249,-2718.9,1312.4
16.25,-2725.7,1308.2
16.252,-2717.8,1311.8
16.25,-2739.7,1336.8
16.249,-2753.5,1332.5
16.252,-2754.4,1326.2
16.253,-2768.5,1328.2
16.253,-2779.1,1324.9
16.254,-2802.8,1315.9
16.261,-2805.9,1313.8
16.258,-2807.2,1321.2
16.255,-2826.8,1310.4
16.259,-2821.7,1311
16.259,-2830.1,1323.4
16.258,-2835.9,1305.7
16.259,-2835.8,1300.1
16.256,-2825.4,1314.8
16.259,-2822,1318.5
16.261,-2824,1310
16.259,-2829.1,1314.9
16.264,-2815.5,1296.7
16.265,-2829,1261.4
16.268,-2840.6,1257.8
16.268,-2822.8,1259.7
16.268,-2826.8,1288.3
16.271,-2820.7,1315.8
16.276,-2818.1,1321.5
16.277,-2817.5,1327.1
16.273,-2806.4,1322.8
16.271,-2798.8,1318.8
16.267,-2808.3,1302.4
16.269,-2811.9,1302.9
16.276,-2823.7,1316.2
16.277,-2826.8,1321.5
16.28,-2812.3,1316.4
16.279,-2814.8,1322.6
16.274,-2830,1327.7
16.272,-2831.9,1310.4
16.275,-2832.8,1312.2
16.28,-2832.5,1304.3
16.283,-2835.8,1289.6
16.281,-2820.8,1306.7
16.281,-2789.6,1300.9
16.276,-2719.3,1302
16.278,-2607.8,1296.7
16.281,-2513.8,1280
16.28,-2438.5,1302.9
16.28,-2320.6,1309.2
16.283,-2167.3,1291.2
16.282,-2014.8,1310.1
16.283,-1856.6,1316.2
16.284,-1687.6,1318.9
16.283,-1506.8,1345.5
16.29,-1376.6,1341.5
16.288,-1251.1,1327.4
16.282,-1177.3,1339.8
16.286,-1253,1338.7
16.288,-1377.1,1343.8
16.286,-1620.4,1349
16.29,-1957.8,1329.2
16.291,-2252.1,1311.4
16.297,-2476.9,1295.4
16.298,-2741.9,1326.7
16.292,-2955.6,1342
16.289,-2996,1319.4
16.295,-3016.7,1286.9
16.298,-3038.8,1258.7
16.296,-3047.8,1270
16.292,-3047.2,1271.6
16.292,-3021.4,1264.6
16.293,-2965.3,1281.9
16.295,-2910.4,1300
16.297,-2871.7,1299.8
16.3,-2831.2,1307.6
16.299,-2794.5,1308.9
16.298,-2780.2,1290.1
16.301,-2784.3,1290.9
16.301,-2770.8,1297.9
16.301,-2749,1301
16.304,-2758.2,1322.7
16.305,-2759.1,1304.9
16.306,-2740,1287.3
16.307,-2742.3,1312.9
16.312,-2767.4,1307.9
16.311,-2760.7,1304.8
16.309,-2757,1315.4
16.311,-2769.3,1322.7
16.308,-2762.7,1343.2
16.308,-2763.3,1351.5
16.313,-2764,1330.6
16.309,-2755.2,1313.4
16.306,-2748.7,1312.3
16.305,-2761.1,1300.5
16.308,-2746.4,1304.8
16.309,-2743,1314.1
16.311,-2745.8,1301.8
16.313,-2736.9,1307.4
16.317,-2736.5,1302
16.316,-2737.3,1291.6
16.308,-2738.9,1295.5
16.313,-2727.2,1290.5
16.323,-2728.8,1289.3
16.321,-2723.8,1309.1
16.319,-2726.3,1299.4
16.32,-2721.5,1293.8
16.32,-2715.5,1310.6
16.319,-2734.9,1307.3
16.321,-2735.4,1311.3
16.323,-2733.3,1307.4
16.318,-2719.4,1312.6
16.317,-2709.5,1312
16.317,-2712.8,1295.8
16.317,-2704.5,1281.8
16.32,-2703.9,1287.5
16.324,-2706.8,1299.2
16.326,-2710.9,1293
16.323,-2704.1,1273.7
16.322,-2689.3,1265.9
16.328,-2675.7,1286
16.327,-2682.5,1312.6
16.327,-2689.2,1329.6
16.333,-2682.1,1332.2
16.331,-2677.7,1319.2
16.329,-2681,1303.2
16.327,-2682.9,1311.3
16.322,-2684.4,1308.9
16.324,-2668.5,1309.4
16.329,-2651,1314.5
16.334,-2644.6,1307.1
16.334,-2647.1,1284.2
16.331,-2637.9,1289
16.334,-2626.4,1308.1
16.336,-2617.7,1314.1
16.336,-2616.5,1310.6
16.334,-2608.9,1301.1
16.336,-2617.5,1300.3
16.338,-2627.4,1297.3
16.336,-2610.7,1297.3
16.334,-2600.1,1306.7
16.336,-2602.6,1309
16.337,-2589.7,1301
16.34,-2578.3,1302.1
16.339,-2560.8,1315.7
16.336,-2547.4,1319.6
16.337,-2545.8,1302.6
16.34,-2539.8,1299.8
16.343,-2524.6,1302.4
16.345,-2508.8,1295.4
16.339,-2493,1297.3
16.34,-2470.5,1299.5
16.343,-2459.2,1303.5
16.346,-2438.3,1289.2
16.343,-2433.4,1285.2
16.346,-2434.5,1293.6
16.352,-2415.8,1290.6
16.348,-2397.9,1292.6
16.347,-2395.2,1284.5
16.345,-2395.8,1292.5
16.345,-2381.8,1301.3
16.347,-2361.4,1287.9
16.349,-2359.1,1276
16.351,-2351.9,1272.4
16.35,-2330.5,1290.7
16.356,-2322.9,1299.4
16.359,-2308.4,1310.9
16.35,-2300.2,1320.7
16.342,-2298.3,1314.5
16.345,-2279.8,1310
16.348,-2271.6,1312.4
16.347,-2259.9,1315.7
16.351,-2261.4,1307.5
16.355,-2264,1308.8
16.353,-2245.6,1315.6
16.353,-2249.3,1322.4
16.353,-2243.7,1305.8
16.354,-2232.1,1282.6
16.356,-2234.3,1272
16.355,-2242.9,1269.9
16.354,-2269.4,1281.7
16.355,-2295.5,1293
16.359,-2307.8,1301.4
16.357,-2313.7,1309.3
16.355,-2322.5,1307.4
16.36,-2333.3,1302.3
16.363,-2336.9,1293.5
16.366,-2353.8,1278.3
16.37,-2392.9,1281
16.364,-2418.8,1297.1
16.359,-2445.6,1300.7
16.36,-2454.4,1310.9
16.361,-2481.3,1318.6
16.365,-2493.8,1332.6
16.366,-2501.7,1334.5
16.363,-2536.3,1320.7
16.363,-2558.1,1323.4
16.364,-2587.5,1318.8
16.364,-2600.6,1304.9
16.363,-2619.6,1297.5
16.364,-2646.6,1293.5
16.364,-2664.8,1303.9
16.366,-2685.2,1305.8
16.369,-2693.5,1301.3
16.369,-2701.2,1305
16.371,-2701.4,1310.5
16.372,-2713.8,1302.4
16.37,-2734.7,1312.2
16.369,-2728.7,1305.8
16.37,-2739.4,1301.7
16.37,-2756,1319.8
16.369,-2743.3,1325.3
16.369,-2758.2,1313.4
16.372,-2775.4,1308
16.376,-2759.2,1305.2
16.376,-2769.1,1296.9
16.378,-2787.7,1273.3
16.373,-2777.6,1276.6
16.37,-2791.8,1291.2
16.37,-2800.8,1296.5
16.368,-2795.4,1300.4
16.372,-2773.9,1302.6
16.374,-2775.7,1319.2
16.375,-2784.8,1335.7
16.38,-2762.2,1341.6
16.38,-2780.3,1305.8
16.379,-2787.7,1292.2
16.376,-2779.4,1307.1
16.374,-2779.7,1303.7
16.375,-2789.7,1300.3
16.375,-2804.6,1303.4
16.374,-2801.6,1309.8
16.376,-2787.8,1307.8
16.378,-2798.2,1310.1
16.38,-2795.6,1310.7
16.382,-2796.2,1296.8
16.378,-2811.8,1299.5
16.378,-2806.3,1297.6
16.381,-2808.7,1282
16.377,-2812.4,1286.3
16.38,-2815.5,1306.9
16.379,-2801.6,1310.2
16.379,-2803.7,1306.8
16.383,-2801.4,1306.4
16.38,-2801.2,1297.9
16.381,-2801.9,1293.9
16.385,-2797.4,1286.4
16.382,-2794.9,1294.6
16.38,-2794.1,1299.8
16.384,-2796.7,1313.4
16.383,-2802.3,1322.7
16.384,-2804,1319.5
16.384,-2798.4,1324.8
16.383,-2810.8,1326.4
16.382,-2804.4,1331.5
16.386,-2790.3,1323.2
16.391,-2796.6,1329.4
16.39,-2803.4,1333.4
16.386,-2793.8,1336.1
16.385,-2786.5,1331.3
16.384,-2796.6,1325.4
16.383,-2791.7,1314.6
16.382,-2788.4,1311.8
16.387,-2787.7,1312.6
16.388,-2789.3,1299.9
16.384,-2791.1,1307.9
16.383,-2774.8,1311.9
16.39,-2772.7,1295
16.393,-2774.9,1290.6
16.385,-2777.5,1301.8
16.383,-2781.1,1304.9
16.386,-2789.1,1286.3
16.389,-2799.2,1262.4
16.392,-2786.6,1285
16.393,-2783.5,1298.2
16.393,-2777.4,1299.4
16.392,-2762.5,1301.6
16.388,-2751.5,1310.5
16.389,-2754.5,1315.4
16.392,-2776,1314.9
16.395,-2782.1,1307.8
16.393,-2773.4,1311.3
16.396,-2773,1301.6
16.397,-2762.6,1290.5
16.393,-2765.9,1296.2
16.394,-2769.2,1297.7
16.392,-2761.7,1297.6
16.394,-2759.1,1302.1
16.397,-2766.7,1302.8
16.393,-2772.7,1317.2
16.393,-2762.7,1312.9
16.389,-2771.2,1293.2
16.388,-2782.6,1284
16.392,-2781,1287.3
16.391,-2774.4,1298.7
16.391,-2755.2,1292.6
16.393,-2764.7,1291.5
16.393,-2778,1299.5
16.394,-2769.8,1302.5
16.397,-2764.8,1303.9
16.398,-2779.7,1305.4
16.398,-2785.3,1315.6
16.397,-2782.2,1327.7
16.398,-2771.3,1335.4
16.392,-2768.8,1321.9
16.391,-2780.5,1320.6
16.391,-2776.9,1324.2
16.394,-2762.7,1295.9
16.398,-2761.9,1277.9
16.397,-2778.3,1276.5
16.394,-2781.3,1299.7
16.391,-2780.6,1321.9
16.392,-2791.9,1325.2
16.393,-2793.9,1315.3
16.397,-2792.4,1306.2
16.395,-2791.5,1291.9
16.394,-2780.3,1301.2
16.395,-2781.9,1305.8
16.399,-2789.8,1307.9
16.399,-2778.8,1318.5
16.4,-2780.5,1310.4
16.4,-2791.6,1298.3
16.397,-2799.6,1299.4
16.396,-2800.4,1276.6
16.394,-2800.2,1268
16.393,-2809.8,1290.4
16.394,-2800.8,1297.5
16.39,-2791.7,1295.2
16.39,-2787.1,1295.3
16.397,-2781.7,1306.5
16.399,-2772,1311.1
16.394,-2775.6,1304.7
16.394,-2778.2,1296.3
16.397,-2780.2,1294.8
16.396,-2775.6,1282.8
16.393,-2775,1292.5
16.395,-2770.1,1289.6
16.399,-2776.5,1307.9
16.4,-2791.2,1323.1
16.397,-2787.2,1306.8
16.397,-2785.8,1309.7
16.401,-2775.2,1323.9
16.397,-2746.1,1309.7
16.399,-2721.6,1305.9
16.396,-2714,1306.2
16.39,-2719.1,1314.9
16.395,-2705.7,1322.2
16.395,-2692.5,1300.2
16.4,-2697.7,1296.9
16.399,-2695.3,1289
16.398,-2702.2,1273.7
16.401,-2711.3,1274.8
16.396,-2732.1,1276.4
16.397,-2742.5,1294.1
16.4,-2733.6,1306.8
16.395,-2744.2,1317.6
16.398,-2756.6,1322.9
16.403,-2768.2,1317.3
16.399,-2786.6,1316.7
16.397,-2802.8,1315.6
16.4,-2812.3,1320.5
16.398,-2816.3,1311.5
16.399,-2816.7,1293.7
16.397,-2826.5,1297.8
16.393,-2845.5,1315.8
16.395,-2843.9,1311.3
16.401,-2836.1,1308.3
16.4,-2824.2,1309.1
16.399,-2813.5,1317.5
16.395,-2811.4,1324.3
16.397,-2814.1,1316.6
16.401,-2822,1307.3
16.4,-2828.6,1305.3
16.395,-2829.8,1313.2
16.397,-2831.5,1315.5
16.399,-2836.2,1309.4
16.398,-2821.8,1298.3
16.399,-2814.2,1296.5
16.398,-2820.3,1290.4
16.4,-2819.4,1298
16.404,-2814.6,1309.1
16.404,-2817.4,1305.8
16.4,-2819.8,1291
16.393,-2832.6,1301.8
16.389,-2836.3,1298.3
16.39,-2826.8,1296.2
16.392,-2824.2,1290.3
16.396,-2835.1,1292.7
16.398,-2836.9,1310.2
16.401,-2845,1306.6
16.399,-2849,1307
16.399,-2839.9,1313.1
16.401,-2816.4,1304.4
16.4,-2755.4,1302.3
16.4,-2665.6,1300.9
16.401,-2587.8,1297.5
16.4,-2507,1285.2
16.397,-2412.2,1277.2
16.401,-2302.1,1276.6
16.403,-2127.3,1276.3
16.402,-1964.1,1273.3
16.404,-1852.7,1285.7
16.407,-1669.9,1289.6
16.404,-1490.6,1298
16.403,-1393,1316.7
16.402,-1284.5,1311.6
16.399,-1288.7,1296.6
16.395,-1409.4,1305.5
16.399,-1581.8,1310.6
16.403,-1854.8,1294.1
16.402,-2169.3,1277.7
16.399,-2401.8,1273.1
16.399,-2580.3,1285
16.397,-2834.9,1306.6
16.402,-2970.3,1312
16.403,-2977.8,1290.1
16.4,-3005.5,1273.3
16.395,-3039.4,1281.8
16.397,-3039.9,1296.8
16.4,-3029.2,1291.1
16.405,-2995.1,1283.2
16.403,-2937.1,1278.3
16.402,-2876.7,1283.7
16.399,-2848.2,1288.7
16.391,-2814.1,1284.2
16.39,-2782.5,1271.4
16.394,-2773.5,1265.2
16.4,-2765.2,1270.7
16.404,-2751.5,1278.2
16.401,-2744.9,1297.7
16.396,-2734.8,1304.5
16.399,-2743.3,1306.7
16.398,-2757.4,1309.6
16.398,-2751.6,1316
16.4,-2757,1318.1
16.397,-2771.8,1311.5
16.398,-2766.3,1300.3
16.401,-2761.3,1289.2
16.403,-2769.1,1280.8
16.401,-2763.7,1277.8
16.4,-2759.3,1261.2
16.402,-2750.6,1271.4
16.4,-2738.6,1290
16.398,-2745.4,1294.7
16.393,-2750.7,1302.7
16.395,-2745.3,1295.6
16.401,-2744.2,1303
16.403,-2745.5,1304.8
16.399,-2740.5,1303.3
16.403,-2733.4,1288
16.403,-2729,1268.6
16.398,-2730.2,1273.7
16.401,-2739.2,1289.7
16.401,-2737.8,1291.1
16.398,-2728.4,1296.6
16.398,-2734.6,1305.3
16.397,-2740.4,1302.8
16.395,-2725.6,1304.1
16.39,-2718.9,1290.6
16.393,-2718.1,1273
16.397,-2719.9,1260.3
16.393,-2711.2,1263.5
16.392,-2705.5,1271.2
16.392,-2698.3,1274.6
16.39,-2706.6,1283.8
16.392,-2712.7,1291.2
16.394,-2695.1,1297.4
16.396,-2702,1306
16.392,-2702.9,1307.4
16.391,-2695.8,1294.2
16.393,-2691.6,1288.2
16.393,-2686.6,1298.3
16.394,-2684.4,1304.6
16.392,-2674.5,1291.8
16.392,-2666.3,1309.6
16.396,-2673.4,1322.7
16.394,-2673.5,1316.7
16.388,-2661.8,1305.1
16.391,-2664.9,1290.6
16.391,-2656.6,1280.6
16.387,-2649.7,1263.4
16.393,-2642.2,1255.2
16.392,-2640.7,1270.8
16.389,-2630.9,1279.5
16.387,-2627.6,1288.1
16.389,-2619.4,1297
16.39,-2608.9,1291.8
16.39,-2614.8,1300.5
16.393,-2606,1304.2
16.39,-2595.7,1289.6
16.388,-2576.6,1289.1
16.386,-2573.7,1293.5
16.387,-2574,1294.3
16.389,-2560.7,1298.9
16.386,-2553.1,1276.1
16.384,-2536.1,1266.8
16.382,-2532.9,1287.9
16.381,-2522.8,1278.5
16.379,-2509.3,1261.1
16.379,-2497.8,1252
16.381,-2477.6,1267.9
16.382,-2465,1290.6
16.384,-2465.4,1287.9
16.381,-2457.3,1293.3
16.382,-2434.5,1299.8
16.39,-2425.1,1295
16.386,-2418.1,1287.7
16.38,-2403.8,1270.1
16.387,-2385.2,1269
16.388,-2363.5,1284.3
16.385,-2345.9,1287.6
16.387,-2339.2,1266.5
16.387,-2321.3,1263.8
16.383,-2304.2,1268.5
16.382,-2295.4,1276.9
16.38,-2292.9,1287.5
16.378,-2293.8,1290.9
16.378,-2290.6,1293.8
16.38,-2278.3,1278.3
16.378,-2272.8,1256.3
16.379,-2266.5,1263.6
16.381,-2263.2,1273.8
16.38,-2255.1,1278.1
16.375,-2249.5,1272.6
16.378,-2256.8,1277.3
16.381,-2253.1,1279.4
16.382,-2262.8,1264.6
16.376,-2280.2,1262.2
16.373,-2288.2,1266.7
16.375,-2298.4,1268.5
16.376,-2309.8,1280.2
16.374,-2303.2,1294.7
16.377,-2322.6,1295
16.38,-2351.9,1293.8
16.379,-2363.6,1292
16.382,-2391.6,1294.2
16.38,-2414.8,1294.4
16.377,-2437.7,1296.9
16.379,-2461.2,1294.7
16.373,-2485.9,1292.2
16.372,-2509.3,1287.3
16.376,-2534.4,1283
16.373,-2546.1,1282.3
16.374,-2564.2,1271.7
16.372,-2591.7,1259.1
16.373,-2615.8,1260.5
16.375,-2640.6,1274.8
16.375,-2657.9,1282.3
16.375,-2679.7,1290.7
16.369,-2697.9,1292.2
16.363,-2710.5,1298
16.364,-2718.8,1307.1
16.364,-2723.2,1308.9
16.366,-2740.3,1312.7
16.371,-2756.3,1302.2
16.372,-2767.1,1297.8
16.367,-2769.5,1296.7
16.364,-2775.8,1281.9
16.365,-2786,1295.9
16.366,-2788.6,1295.6
16.366,-2793.5,1281.5
16.368,-2794.3,1290.7
16.366,-2795.3,1288.6
16.369,-2799.5,1291.4
16.37,-2799.3,1296.5
16.368,-2795.8,1298.6
16.364,-2798.1,1290.5
16.364,-2809.4,1277
16.365,-2806.5,1276.8
16.356,-2813.1,1283.3
16.357,-2819.1,1290
16.364,-2817.1,1291
16.363,-2811.2,1294.1
16.362,-2807.4,1305.1
16.365,-2809.9,1311.6
16.365,-2807.9,1303.1
16.364,-2806.3,1275.2
16.36,-2808.4,1261
16.36,-2812.2,1237
16.361,-2819.3,1236.9
16.359,-2831.9,1264
16.36,-2828.8,1275.3
16.358,-2816.8,1261.2
16.355,-2800.5,1263.6
16.356,-2814.1,1283.8
16.357,-2818.9,1286.1
16.361,-2816.8,1283.5
16.361,-2828.9,1300.7
16.359,-2839.5,1298.1
16.36,-2834.6,1282.7
16.356,-2832.3,1277.1
16.352,-2841.6,1272.5
16.353,-2835.4,1283.3
16.356,-2822.1,1296.5
16.355,-2816.9,1289.6
16.355,-2815,1300
16.353,-2813.2,1309.8
16.353,-2820.6,1320.9
16.355,-2822.4,1328.7
16.353,-2823.8,1323.9
16.348,-2822.1,1322
16.346,-2827.8,1322.8
16.346,-2820.8,1307.9
16.349,-2810.8,1304.4
16.353,-2811.2,1304.6
16.349,-2810.3,1291
16.349,-2802.2,1274.2
16.352,-2807.8,1255.6
16.349,-2815,1264.2
16.346,-2806.8,1296.5
16.347,-2815.8,1306
16.344,-2823.1,1301.1
16.339,-2813.2,1289.5
16.34,-2805.3,1289.7
16.343,-2800.7,1301.3
16.345,-2806.6,1307.9
16.344,-2812.3,1310.1
16.344,-2806.3,1308.2
16.343,-2806.8,1311.5
16.344,-2808.5,1310.2
16.342,-2811.7,1288.6
16.341,-2802.7,1284.1
16.341,-2797.3,1272.6
16.342,-2803.9,1252.8
16.341,-2797.9,1260.8
16.337,-2794.6,1274.9
16.336,-2790.8,1279.7
16.339,-2791.2,1278.6
16.344,-2795.4,1288.2
16.341,-2788.6,1297.6
16.336,-2796.2,1287.1
16.334,-2807.5,1273.6
16.335,-2807.2,1265.5
16.333,-2805.5,1258.4
16.337,-2795.1,1272.2
16.337,-2793.1,1285.4
16.334,-2792.2,1287.3
16.333,-2796,1305.3
16.331,-2799.3,1315.8
16.329,-2802,1289.6
16.33,-2807.1,1279.1
16.335,-2800.7,1294.4
16.335,-2798.6,1274.3
16.331,-2796.9,1278.2
16.328,-2798.7,1295
16.327,-2792.5,1291.8
16.327,-2786.1,1305.7
16.328,-2794.8,1296
16.329,-2793.4,1276.7
16.326,-2796.8,1285.5
16.327,-2809,1294.3
16.328,-2804.4,1309.2
16.323,-2802.1,1317.2
16.32,-2800.7,1321.5
16.323,-2796.9,1328.3
16.324,-2789.9,1328.5
16.322,-2795.5,1318.7
16.328,-2811.4,1301.2
16.331,-2807.3,1294.9
16.329,-2810.1,1296.7
16.325,-2812.6,1287.6
16.324,-2817,1281.2
16.326,-2816.8,1279.6
16.323,-2810.1,1294.9
16.323,-2808.9,1295.5
16.323,-2813.8,1277.4
16.317,-2814.6,1267.9
16.319,-2799.2,1275.5
16.32,-2802.3,1279.9
16.319,-2803.8,1277.2
16.318,-2805.6,1296.6
16.316,-2812.7,1315.4
16.316,-2812,1314.2
16.316,-2811.7,1302.9
16.316,-2810.2,1289
16.312,-2810.9,1285.1
16.314,-2805.9,1290.3
16.319,-2806.8,1291.6
16.316,-2811,1279
16.316,-2810.2,1272.4
16.314,-2822.9,1291
16.309,-2827,1302.5
16.308,-2826.5,1299.9
16.309,-2825.1,1303.5
16.308,-2819.4,1278.2
16.311,-2819.6,1257.2
16.313,-2811.5,1260.5
16.311,-2809,1279.6
16.31,-2813.1,1283.2
16.315,-2816.2,1294.4
16.313,-2813.1,1299.7
16.306,-2818.3,1304.8
16.304,-2826.1,1316.5
16.303,-2820.8,1306.4
16.304,-2817.2,1301.3
16.302,-2819.8,1286.5
16.301,-2818.6,1294.5
16.298,-2816.8,1310
16.3,-2822.3,1304.5
16.304,-2830.6,1302.3
16.305,-2830.9,1297.2
16.3,-2833.5,1291.8
16.299,-2837.3,1289.8
16.299,-2834.2,1290.9
16.296,-2836.3,1282.6
16.295,-2838.8,1289.6
16.295,-2833.1,1301.8
16.298,-2828.3,1301.5
16.295,-2828.5,1291.9
16.298,-2824.1,1282.7
16.301,-2820.3,1284.1
16.299,-2813.2,1289.8
16.299,-2801.3,1292.3
16.299,-2794.6,1288.1
16.295,-2798,1283.8
16.294,-2792.8,1292.7
16.291,-2779.5,1296.1
16.29,-2787.8,1285.2
16.293,-2798.4,1284
16.293,-2812.9,1286.2
16.289,-2822.3,1285.9
16.288,-2815.6,1274.7
16.29,-2814.3,1269.3
16.29,-2791.4,1276
16.289,-2766.1,1280.4
16.289,-2749.8,1285
16.295,-2729.5,1284.1
16.294,-2730.2,1305.1
16.288,-2721.3,1312.2
16.287,-2725.1,1287.5
16.285,-2738,1270.1
16.284,-2746.4,1266.3
16.281,-2748.6,1274.6
16.283,-2752.1,1288.5
16.285,-2754.8,1289.6
16.282,-2754.3,1290
16.283,-2765,1299.8
16.282,-2781.2,1311.3
16.279,-2799.1,1311.6
16.28,-2819.3,1297.8
16.279,-2834.4,1278.6
16.276,-2848.3,1276.8
16.274,-2857.6,1277.4
16.277,-2843.3,1280
16.278,-2844.3,1289.4
16.277,-2856.7,1282.8
16.281,-2851.6,1273.8
16.275,-2850.1,1293.2
16.272,-2849.2,1301.1
16.274,-2851.4,1295.2
16.272,-2842.9,1290.1
16.272,-2842.7,1301
16.272,-2848,1320.2
16.27,-2846.7,1315.3
16.267,-2855.8,1284.1
16.266,-2853.1,1254.9
16.271,-2848.2,1241
16.272,-2844.8,1244.7
16.269,-2846.3,1261.6
16.266,-2844.3,1268.5
16.264,-2840.5,1283.3
16.265,-2847.6,1296
16.266,-2856.7,1304.8
16.268,-2857.1,1296.6
16.269,-2846.1,1279.4
16.267,-2847.9,1283.9
16.262,-2849.7,1294
16.266,-2854.3,1308.6
16.267,-2855.5,1309.3
16.262,-2859.8,1298.8
16.264,-2869.6,1307.4
16.265,-2871.5,1314.8
16.263,-2851.9,1317.4
16.258,-2792.2,1310
16.258,-2691.5,1308.4
16.256,-2574.9,1307.3
16.253,-2487.3,1293.6
16.254,-2413.6,1281.2
16.256,-2318.3,1280.4
16.257,-2177.7,1279
16.258,-1999.3,1288.1
16.257,-1855.7,1291.9
16.258,-1716.1,1296.3
16.257,-1517.1,1302.8
16.251,-1332.7,1298.9
16.247,-1188.1,1292
16.247,-1101.9,1300.2
16.252,-1155.2,1313
16.252,-1303.4,1310.1
16.247,-1547.9,1308.5
16.249,-1857.3,1311.1
16.249,-2190.7,1298.9
16.247,-2459.7,1287.5
16.248,-2711.5,1280.9
16.247,-2946.2,1265.3
16.242,-3049,1266
16.242,-3081.1,1266.6
16.243,-3089.4,1267.1
16.244,-3097.6,1269.2
16.251,-3067.9,1269.6
16.25,-3004.3,1282
16.245,-2917.4,1285.7
16.241,-2851.1,1268.4
16.237,-2814.2,1271.8
16.237,-2792.9,1283
16.241,-2775.7,1291.1
16.24,-2774.9,1298.2
16.232,-2780.3,1290.5
16.234,-2772.3,1279.5
16.24,-2779.2,1295.5
16.236,-2785.5,1298.6
16.234,-2784.9,1281
16.236,-2787.9,1288
16.233,-2793.8,1294.5
16.232,-2790.9,1281.3
16.235,-2790.9,1296.5
16.236,-2798.1,1302.5
16.23,-2800.1,1293.3
16.229,-2790.9,1302.7
16.234,-2784.8,1297.4
16.232,-2784.8,1288.7
16.23,-2777.3,1280
16.229,-2776,1277.9
16.229,-2780.9,1287.7
16.231,-2784.3,1295.2
16.231,-2782.7,1299.7
16.227,-2778.1,1295.2
16.227,-2772,1290.9
16.227,-2770.1,1297.4
16.225,-2769.9,1294.7
16.224,-2773.1,1288.2
16.224,-2764,1286.9
16.224,-2757.8,1297.4
16.225,-2762.7,1303.5
16.226,-2760.4,1286.6
16.224,-2758.8,1278.7
16.22,-2757.3,1289.8
16.221,-2757,1289
16.221,-2750.8,1282
16.222,-2753.2,1292.4
16.221,-2751.9,1305.1
16.216,-2742.3,1316.3
16.217,-2739.1,1329.7
16.22,-2739.6,1326.9
16.22,-2739.5,1315.4
16.217,-2742.1,1294.8
16.212,-2747.7,1280.5
16.213,-2740.2,1288.3
16.212,-2728.3,1297.1
16.213,-2714.2,1292.6
16.212,-2704.3,1287.2
16.214,-2699.7,1289.4
16.213,-2703.4,1296.7
16.212,-2701.4,1284.3
16.212,-2698.1,1264.2
16.211,-2698.4,1274.3
16.209,-2692.3,1291.5
16.202,-2693.6,1301.6
16.203,-2691.2,1300.1
16.208,-2679.1,1300.3
16.209,-2675.4,1305.6
16.208,-2672.1,1304.7
16.208,-2667.7,1302.6
16.206,-2662.3,1286.8
16.201,-2653.3,1272.8
16.201,-2650.6,1284.5
16.204,-2646.8,1298
16.201,-2647.4,1303.4
16.202,-2631.4,1298.3
16.203,-2607.4,1297.7
16.2,-2601.8,1310.7
16.199,-2598.7,1318.8
16.2,-2595,1316.1
16.201,-2586.1,1313.4
16.205,-2578,1314.4
16.203,-2576.4,1309.1
16.195,-2572.3,1310.8
16.192,-2557.6,1301.1
16.195,-2544.1,1298.2
16.198,-2530,1298.2
16.193,-2511.1,1294.5
16.191,-2499,1296
16.194,-2486.7,1299.5
16.195,-2472.2,1317.2
16.196,-2459.4,1307
16.196,-2448.6,1302.1
16.191,-2435,1321.4
16.19,-2419.7,1315
16.192,-2405.5,1284.8
16.191,-2389.2,1274.9
16.19,-2376.5,1294.2
16.186,-2359.8,1306.2
16.187,-2355,1286
16.191,-2345.1,1279.5
16.189,-2324.2,1298.6
16.188,-2319.9,1295.7
16.189,-2313.1,1282
16.186,-2303.7,1269.7
16.18,-2286,1270.7
16.176,-2274.9,1284.3
16.176,-2266.4,1298.3
16.181,-2257.6,1301.8
16.179,-2248.9,1298.3
16.18,-2240.9,1303.4
16.19,-2242.3,1302.9
16.187,-2243.7,1282.1
16.182,-2245.3,1279.9
16.182,-2252.3,1287
16.179,-2262,1276.7
16.176,-2272.2,1270.3
16.176,-2273.5,1273.9
16.175,-2282.6,1279
16.175,-2294.7,1265.8
16.177,-2309.3,1252.4
16.172,-2337.1,1256.7
16.171,-2364.5,1249.6
16.178,-2391.3,1259
16.175,-2415.4,1282.2
16.178,-2436.5,1298.5
16.178,-2462.8,1312.5
16.172,-2486.7,1308.8
16.171,-2510.1,1316.7
16.168,-2534.6,1317.5
16.168,-2555.8,1296.6
16.168,-2583.9,1288
16.168,-2613.2,1290.8
16.171,-2632.4,1297.8
16.173,-2652.4,1284.5
16.172,-2670.7,1261.2
16.171,-2684.7,1281.4
16.165,-2694.4,1295.9
16.162,-2708.4,1290.7
16.165,-2721.5,1289.8
16.163,-2732.4,1301.4
16.164,-2749,1305.7
16.166,-2765.7,1307.1
16.166,-2781.6,1311.6
16.164,-2797.9,1318.2
16.162,-2803.7,1323.3
16.159,-2798,1315
16.16,-2801.5,1298.2
16.164,-2802.7,1288.2
16.163,-2801.5,1282.5
16.163,-2809.7,1293.1
16.161,-2812.6,1303.5
16.158,-2812.8,1296.8
16.163,-2822.3,1296.4
16.168,-2831.2,1305
16.159,-2830.9,1314.8
16.155,-2835.4,1323.8
16.156,-2834.3,1313.1
16.154,-2831.1,1275.5
16.153,-2824.5,1264.1
16.154,-2827.4,1267.6
16.156,-2832.4,1251.3
16.156,-2833.1,1254.3
16.153,-2835.8,1270.8
16.152,-2838.7,1283
16.148,-2839.2,1294.6
16.147,-2840.2,1305.5
16.152,-2836.4,1314.1
16.155,-2837.4,1311
16.15,-2837.3,1291.8
16.15,-2832.9,1289.8
16.151,-2834,1310.1
16.151,-2840.4,1323.2
16.152,-2847.5,1319.7
16.149,-2844.5,1307.7
16.146,-2847,1303.6
16.144,-2848.3,1311
16.147,-2845.9,1325
16.147,-2846,1323.6
16.143,-2834.6,1306.5
16.144,-2834.3,1312.8
16.142,-2838.5,1319.9
16.144,-2836.3,1324.5
16.146,-2836.9,1303.9
16.144,-2850.4,1284
16.143,-2855,1283.5
16.143,-2847.2,1288.7
16.146,-2846.6,1281.4
16.148,-2846.2,1283.8
16.143,-2843.5,1290.7
16.142,-2842.7,1301.4
16.145,-2841,1321.4
16.145,-2846.1,1316.8
16.141,-2849.7,1316.7
16.14,-2849.4,1325.3
16.139,-2847.7,1327.5
16.139,-2841,1328.9
16.141,-2836.9,1323.7
16.137,-2834.8,1311.1
16.136,-2830.4,1311.7
16.137,-2824.4,1304.5
16.136,-2826.4,1293.2
16.135,-2829.3,1305.8
16.135,-2832.9,1306.8
16.14,-2829.2,1308.4
16.138,-2833.4,1300.7
16.136,-2837,1283.4
16.135,-2833.5,1281.8
16.139,-2831.7,1288.2
16.136,-2827.4,1288.6
16.14,-2819.5,1288.8
16.141,-2817.7,1296.8
16.137,-2818.8,1310.2
16.136,-2816.2,1307.1
16.133,-2817.2,1296.7
16.13,-2818.4,1304.9
16.131,-2825.6,1308.9
16.129,-2827.4,1311.3
16.128,-2823,1304.4
16.131,-2821.6,1292.3
16.134,-2818.2,1293.7
16.136,-2815.9,1284.4
16.133,-2816.8,1297.2
16.131,-2813.2,1320.6
16.131,-2816.4,1320.1
16.131,-2821.3,1317.4
16.132,-2825.7,1307
16.131,-2830.3,1282
16.128,-2827.4,1276.1
16.125,-2826,1292.9
16.121,-2825.4,1299.7
16.122,-2824.5,1291.9
16.126,-2825.6,1291.1
16.129,-2824.9,1315.1
16.133,-2827.3,1333.8
16.127,-2828.9,1335.5
16.126,-2826.4,1313.9
16.122,-2830.7,1300.3
16.122,-2828.6,1319.3
16.125,-2830.8,1321.6
16.129,-2826,1321.1
16.127,-2822,1323.9
16.121,-2825.9,1316.5
16.121,-2825.4,1323.6
16.124,-2827.9,1313.9
16.124,-2826.8,1297
16.124,-2826.4,1288.5
16.122,-2823.2,1288.4
16.124,-2824.6,1284.6
16.12,-2831.6,1284.9
16.118,-2824.9,1292.2
16.12,-2824.5,1309.6
16.12,-2821.9,1318.9
16.122,-2820.9,1311.6
16.123,-2820.5,1297.7
16.124,-2825.8,1290.9
16.124,-2838.5,1291.6
16.122,-2833.6,1295
16.119,-2833,1304.8
16.11,-2839.5,1304.2
16.111,-2829.7,1313.2
16.119,-2819.8,1310.1
16.12,-2821.9,1297.6
16.115,-2822.2,1291.4
16.116,-2824.1,1292.7
16.12,-2826.9,1284.3
16.121,-2831.7,1288.7
16.123,-2836.7,1298.3
16.117,-2837.6,1308.7
16.114,-2837,1311.5
16.116,-2837.6,1316.6
16.112,-2829.7,1308.8
16.112,-2829.9,1277.6
16.115,-2828.5,1279.7
16.116,-2827.1,1296.3
16.12,-2833.3,1300
16.123,-2837.7,1302.3
16.116,-2841.6,1312.2
16.114,-2843,1330.4
16.114,-2846,1342.3
16.111,-2842.4,1334.5
16.114,-2841.1,1322.6
16.115,-2839.6,1318.1
16.111,-2838.9,1308.7
16.11,-2836.6,1287.6
16.112,-2838.8,1297.4
16.115,-2846,1313
16.111,-2850.1,1307.1
16.11,-2852.8,1295.3
16.116,-2849.6,1290.7
16.113,-2844.6,1297
16.106,-2839.8,1305.8
16.111,-2837.3,1312.6
16.117,-2833,1305.3
16.117,-2830.7,1292.5
16.113,-2837.2,1291.5
16.112,-2850.2,1299.9
16.115,-2859.4,1305
16.111,-2861.5,1292.3
16.113,-2859,1296.9
16.108,-2848.8,1305.2
16.106,-2844.4,1293
16.108,-2838.6,1279.6
16.11,-2832,1295.9
16.11,-2836.8,1306.1
16.114,-2845,1298.6
16.112,-2848.8,1297.9
16.111,-2852.8,1305
16.112,-2855.1,1296
16.113,-2859.8,1291.2
16.112,-2865.8,1301.8
16.113,-2869.7,1305.6
16.115,-2868.1,1311.7
16.12,-2864.6,1315.2
16.119,-2863.8,1291.3
16.115,-2855.6,1268.6
16.113,-2846.1,1257.8
16.113,-2844.5,1238
16.116,-2838.4,1244.2
16.116,-2831.1,1265.2
16.115,-2835,1278.1
16.113,-2827.6,1295.1
16.111,-2818.2,1321.3
16.112,-2820.4,1332.7
16.112,-2825.8,1328.8
16.115,-2826.8,1322.9
16.115,-2831.9,1324.2
16.111,-2827.5,1333
16.116,-2827.7,1326.1
16.113,-2822.1,1335.7
16.111,-2814.2,1348.4
16.11,-2792.6,1341.7
16.111,-2763.7,1325.8
16.113,-2750.3,1298.8
16.113,-2747.7,1280.7
16.112,-2752.8,1271.9
16.117,-2763.5,1277.9
16.115,-2771.7,1288.7
16.114,-2774.7,1293.7
16.117,-2774.5,1303.6
16.116,-2768.3,1306.3
16.109,-2767.2,1306.1
16.111,-2770.1,1315.1
16.114,-2778.2,1321.1
16.118,-2791.5,1315.3
16.109,-2805.9,1313.5
16.11,-2828.5,1301.4
16.113,-2850.5,1296.1
16.116,-2867.4,1307
16.116,-2873.8,1313.7
16.114,-2873.3,1304.5
16.114,-2876,1295.6
16.12,-2875.3,1295.9
16.12,-2873.6,1303.1
16.119,-2870.9,1298.7
16.117,-2868.4,1299.7
16.117,-2873.5,1306.7
16.121,-2876.5,1319.4
16.115,-2878.1,1316.2
16.111,-2878.5,1312.6
16.116,-2879.7,1317.2
16.115,-2877.6,1319.2
16.118,-2870.6,1322.3
16.119,-2869.3,1302
16.119,-2871.8,1286.4
16.116,-2868.6,1290.6
16.119,-2864.7,1286.2
16.12,-2866.2,1291.9
16.118,-2868.9,1299.3
16.119,-2875,1315.8
16.118,-2876.8,1329.2
16.117,-2871.7,1332.8
16.121,-2868.1,1339.3
16.118,-2862.9,1331.2
16.118,-2861,1337.4
16.114,-2862.9,1330
16.112,-2863.3,1316.3
16.119,-2873.8,1309.8
16.118,-2887.3,1307.3
16.112,-2897.6,1303.3
16.115,-2894.7,1305
16.114,-2878.2,1318.1
16.115,-2829.6,1331.6
16.117,-2735.5,1341
16.121,-2621.5,1339.5
16.122,-2525.6,1324.6
16.123,-2457,1312.3
16.125,-2363.5,1298.6
16.121,-2234.8,1296.7
16.12,-2060.3,1297.6
16.119,-1898.1,1301.3
16.116,-1762.3,1312
16.117,-1563,1325
16.124,-1348.8,1324.5
16.122,-1189.1,1322
16.119,-1070,1320
16.124,-1093.2,1325.3
16.12,-1243,1325.8
16.123,-1484.7,1305.6
16.126,-1796.6,1290.4
16.129,-2152.2,1284.6
16.129,-2450,1279.3
16.123,-2695.7,1273.4
16.122,-2960.8,1279.2
16.127,-3087.3,1293.8
16.127,-3110.8,1311.7
16.127,-3124.2,1301
16.124,-3129.2,1281.8
16.125,-3103.8,1279.3
16.123,-3057.4,1297.1
16.122,-2977,1286.3
16.125,-2904.8,1294.1
16.122,-2855.5,1298.6
16.128,-2825.7,1316.2
16.126,-2801.5,1327.1
16.125,-2788.8,1320.7
16.127,-2791.6,1326.8
16.126,-2796.7,1329.3
16.127,-2804.8,1315.7
16.13,-2812.4,1310.7
16.131,-2817.9,1313
16.126,-2815.3,1305.8
16.13,-2814.4,1321.2
16.135,-2814.5,1325.2
16.131,-2810.9,1321.3
16.13,-2808.4,1314.4
16.124,-2806.3,1303.1
16.128,-2804.1,1302.2
16.134,-2806.8,1299
16.136,-2807.9,1295.3
16.133,-2810.9,1294
16.131,-2814.3,1299.7
16.128,-2811.6,1307
16.13,-2814.4,1312.7
16.129,-2807.7,1320.9
16.129,-2791.9,1327.4
16.133,-2786.7,1332.4
16.131,-2786.7,1323.9
16.134,-2788.9,1308.8
16.13,-2783.9,1312.5
16.135,-2780.3,1306.9
16.139,-2777.8,1302.8
16.138,-2781.9,1292.6
16.139,-2783.7,1285.1
16.137,-2785.2,1275.9
16.139,-2777.9,1280.2
16.139,-2771.6,1300.4
16.138,-2778.1,1308
16.138,-2774,1284.9
16.138,-2764.2,1277.6
16.138,-2761.9,1286.1
16.135,-2762.3,1288.6
16.134,-2757.7,1296.9
16.135,-2755.2,1324.4
16.138,-2755,1331.8
16.14,-2747.7,1335.6
16.138,-2739.8,1328.7
16.139,-2738.6,1320.9
16.143,-2738.2,1321.7
16.143,-2740,1309.1
16.143,-2741.3,1291.6
16.143,-2743.4,1283.5
16.143,-2738.4,1303.1
16.14,-2728.1,1303.8
16.145,-2716.9,1299.5
16.148,-2713.5,1304.7
16.148,-2701.8,1308.7
16.148,-2698,1314.8
16.143,-2697,1317.1
16.143,-2696.5,1309.3
16.143,-2696,1315.8
16.144,-2692.8,1330
16.143,-2695,1312.7
16.145,-2689,1313.7
16.144,-2678.9,1323.2
16.144,-2667,1312.3
16.145,-2658.5,1298.6
16.145,-2653.6,1295.6
16.145,-2643,1306.5
16.149,-2639.6,1317.5
16.152,-2633.6,1298.7
16.148,-2627.6,1290.6
16.149,-2619.3,1291.1
16.146,-2610.9,1284.4
16.149,-2598.6,1282.5
16.152,-2584.8,1284.3
16.15,-2569.4,1287.4
16.155,-2556.7,1284.8
16.156,-2546.2,1286.3
16.155,-2536.2,1282.3
16.151,-2527,1288.7
16.15,-2516.9,1289.1
16.145,-2508,1287.3
16.146,-2500.7,1290.6
16.153,-2491.3,1296.8
16.158,-2477,1301.1
16.158,-2452.1,1305.3
16.154,-2423.3,1319.5
16.151,-2409.2,1315.8
16.15,-2395.5,1319.6
16.152,-2382,1330.4
16.152,-2369.6,1321.1
16.154,-2359,1301.9
16.156,-2345.6,1290.2
16.157,-2328.9,1285.5
16.16,-2322.4,1285.5
16.162,-2308.3,1283
16.158,-2292.2,1276.9
16.162,-2290.2,1284
16.162,-2278.7,1298.6
16.16,-2269.2,1292.1
16.153,-2270.8,1293.7
16.157,-2267.3,1298.2
16.16,-2261.5,1301.6
16.162,-2261.1,1290.8
16.159,-2260.2,1291.8
16.158,-2260.1,1311.7
16.16,-2255.5,1312.3
16.162,-2256.8,1310
16.16,-2272.5,1309.8
16.161,-2288.6,1311.5
16.162,-2307.3,1301.2
16.158,-2326.6,1292
16.162,-2341.6,1297
16.164,-2363.5,1289.5
16.162,-2384.3,1296.4
16.164,-2404,1301.8
16.163,-2422.8,1291.3
16.162,-2450.5,1292.2
16.163,-2482,1296.1
16.165,-2506.5,1294.2
16.163,-2532,1291.7
16.162,-2563.3,1288.2
16.161,-2593.2,1299
16.167,-2618.2,1315.5
16.163,-2638,1301.4
16.168,-2659.6,1299.3
16.169,-2677.1,1301.6
16.166,-2689.7,1292.2
16.164,-2708.4,1287
16.163,-2725.6,1277.8
16.166,-2741.9,1265.2
16.171,-2761.3,1270.9
16.175,-2770.3,1293.9
16.175,-2783.2,1299.9
16.171,-2793.4,1308.9
16.169,-2801.6,1320.3
16.174,-2814.2,1314.3
16.172,-2817.1,1304.2
16.172,-2827.9,1309.5
16.175,-2833.1,1309.9
16.178,-2838.8,1317
16.171,-2841.6,1305.5
16.174,-2845.6,1296.3
16.178,-2851.1,1290.5
16.174,-2852.8,1279.7
16.175,-2852.2,1286
16.173,-2850.8,1291
16.17,-2849.2,1287.5
16.171,-2848.6,1302.8
16.174,-2846.9,1315.4
16.175,-2853.2,1321.4
16.18,-2856.1,1326
16.179,-2852.2,1320.7
16.181,-2856,1329.5
16.172,-2859.9,1340
16.171,-2860.5,1329.7
16.172,-2860.1,1320.1
16.174,-2853.9,1308.7
16.176,-2857,1316.3
16.178,-2859.6,1306.1
16.18,-2860.3,1301.1
16.183,-2866.7,1306
16.184,-2873.7,1312.2
16.176,-2876.4,1317.5
16.179,-2870.1,1321
16.182,-2868.2,1312.9
16.185,-2867.1,1303.5
16.177,-2866.8,1296.6
16.176,-2857.3,1280.8
16.18,-2853,1283.3
16.184,-2862.6,1290.7
16.181,-2866.9,1296.9
16.181,-2868.6,1286.5
16.187,-2873.9,1290.5
16.18,-2879.7,1310.7
16.181,-2874.2,1309.3
16.185,-2873.4,1311.2
16.182,-2873.1,1319.3
16.184,-2865,1326.8
16.185,-2867,1316.1
16.183,-2871.9,1292.5
16.183,-2875.1,1295.4
16.187,-2870,1310.2
16.184,-2877,1311.6
16.181,-2883,1296
16.187,-2877.4,1286.1
16.186,-2878.6,1282.8
16.19,-2870.6,1288.3
16.194,-2866.3,1292.4
16.188,-2863.7,1298.7
16.188,-2861.7,1290.6
16.189,-2863.9,1307.2
16.189,-2863,1327.8
16.192,-2867.9,1317.6
16.19,-2875.9,1307.8
16.191,-2873.5,1313.2
16.189,-2871.1,1322.2
16.192,-2865.3,1299.7
16.195,-2856.6,1276.5
16.196,-2851.3,1285.2
16.197,-2852.4,1286.2
16.196,-2853.1,1290.2
16.192,-2853.6,1288
16.195,-2855.1,1292.1
16.201,-2860.5,1300.5
16.193,-2862.9,1306.8
16.19,-2863.1,1312.2
16.195,-2864,1304.5
16.197,-2859.6,1317.2
16.2,-2853.2,1323.8
16.195,-2847.4,1319.9
16.199,-2842.8,1316.7
16.197,-2841.4,1310.5
16.194,-2845.8,1294
16.197,-2852.4,1294.3
16.198,-2849.4,1304.1
16.197,-2850.2,1310.3
16.198,-2849.6,1319.9
16.198,-2851.4,1310.4
16.197,-2853.5,1302.6
16.2,-2853.1,1306.7
16.204,-2849.8,1307.3
16.203,-2857.7,1305.7
16.2,-2860.3,1301.2
16.201,-2858.9,1303.3
16.197,-2858.1,1308.3
16.198,-2853.9,1316.7
16.197,-2852.3,1321.8
16.199,-2848.1,1307.2
16.201,-2846.8,1294.2
16.202,-2845.2,1290.4
16.201,-2849.5,1276.7
16.205,-2851.9,1269.5
16.201,-2854.4,1274.8
16.201,-2855.5,1286
16.207,-2857.2,1315.5
16.208,-2865.2,1333.1
16.206,-2864.2,1323.2
16.209,-2858.4,1316.1
16.208,-2854.8,1305.9
16.21,-2852.5,1297.7
16.21,-2856.8,1312.7
16.208,-2855,1305.2
16.211,-2858.3,1292.8
16.209,-2861.3,1286.3
16.212,-2862.2,1242.3
16.209,-2866.3,1243.5
16.202,-2868.6,1269.7
16.202,-2870.6,1293.6
16.204,-2866.2,1301.7
16.21,-2866.2,1295.5
16.208,-2872.8,1321
16.211,-2873.4,1345.5
16.209,-2866.1,1327.9
16.209,-2863.7,1327.4
16.21,-2873.7,1317.2
16.208,-2870.8,1305.4
16.213,-2871.2,1307.3
16.211,-2869.1,1313.6
16.211,-2872.7,1301.9
16.21,-2868.2,1292.9
16.213,-2862.1,1302.4
16.214,-2860.4,1295.4
16.21,-2862.5,1292.9
16.214,-2864.1,1290.2
16.213,-2870.7,1287
16.212,-2874,1296.4
16.215,-2868.8,1304.7
16.217,-2870.6,1313.5
16.216,-2872,1300.5
16.214,-2863.6,1313.4
16.214,-2864.4,1324.1
16.219,-2876.9,1316.7
16.223,-2875.5,1314.5
16.219,-2876.4,1303.2
16.217,-2879.8,1293.7
16.217,-2881.2,1301.8
16.214,-2880.8,1315.9
16.212,-2876.4,1316.5
16.218,-2868.8,1303.7
16.218,-2863.7,1300
16.22,-2862.9,1290.1
16.224,-2858.9,1277.3
16.223,-2864.5,1266.4
16.221,-2865.6,1274.2
16.215,-2872,1274.8
16.211,-2878.9,1276
16.218,-2873.9,1287.1
16.217,-2872.7,1296.4
16.217,-2870.1,1296.1
16.221,-2864.3,1301.8
16.224,-2863.9,1291.6
16.226,-2863.9,1279.7
16.219,-2864.3,1282.2
16.22,-2870.4,1277.2
16.222,-2874.6,1285.7
16.22,-2882.5,1300.9
16.223,-2881.9,1306.1
16.224,-2886.3,1300.9
16.225,-2880.7,1292.6
16.226,-2875.1,1300
16.226,-2868.3,1301
16.226,-2872.7,1285.5
16.224,-2882.2,1285.6
16.223,-2883.1,1297.3
16.224,-2883.3,1312.7
16.228,-2879.2,1313.1
16.227,-2873.3,1317.7
16.223,-2876.2,1335.7
16.222,-2873.9,1337.6
16.223,-2874,1331.6
16.222,-2874.2,1320.5
16.224,-2873.8,1311.8
16.228,-2880.2,1308.4
16.228,-2885.3,1315.1
16.227,-2885.7,1312
16.227,-2886.7,1297.4
16.225,-2875,1279.5
16.224,-2869.7,1274.4
16.22,-2869.3,1274
16.227,-2855.6,1287.3
16.221,-2844,1298.1
16.222,-2833.3,1315.8
16.223,-2840,1327
16.222,-2846.1,1316.9
16.223,-2850,1308.4
16.228,-2860.7,1321
16.224,-2865.2,1315.2
16.226,-2862.7,1304.9
16.225,-2855.9,1296.9
16.222,-2843.3,1294.7
16.224,-2829.8,1302.3
16.228,-2810.9,1294.6
16.22,-2792.9,1291
16.224,-2773,1313.4
16.225,-2773.6,1315.2
16.226,-2777.9,1312.6
16.221,-2786,1291.8
16.223,-2784.6,1263
16.223,-2789.3,1269.7
16.22,-2786.2,1283.3
16.225,-2778,1290.4
16.228,-2779.7,1288.5
16.225,-2791.7,1294.7
16.224,-2804.3,1304.7
16.228,-2813.1,1310.1
16.233,-2832.8,1313
16.23,-2856.7,1301.3
16.226,-2874.1,1308.1
16.224,-2884.1,1301.6
16.223,-2887.7,1277.7
16.223,-2882,1291.7
16.228,-2886.2,1287.2
16.23,-2891.8,1292.2
16.228,-2889.7,1280.4
16.226,-2888.8,1283.1
16.226,-2893,1300.2
16.227,-2895.3,1303.9
16.227,-2889.1,1317.8
16.227,-2891.2,1326.3
16.221,-2890.6,1336.9
16.222,-2888.1,1334.5
16.226,-2886.6,1321.7
16.228,-2887.9,1302.6
16.232,-2892.8,1300.4
16.232,-2886.1,1314.3
16.23,-2888,1317.6
16.228,-2892.1,1316.1
16.229,-2893.1,1306.9
16.226,-2895.2,1303.6
16.224,-2893.4,1293.9
16.225,-2886.5,1287.2
16.223,-2878.2,1295.5
16.225,-2882.3,1297
16.226,-2885.6,1308.3
16.223,-2885.3,1313.3
16.225,-2887,1316.4
16.223,-2891.9,1314.1
16.22,-2896.4,1311.7
16.218,-2906.1,1327.1
16.222,-2908.9,1328.8
16.228,-2913.5,1332.4
16.225,-2918.9,1354.7
16.224,-2904.9,1347.4
16.226,-2855.1,1332.6
16.229,-2762.1,1318.2
16.235,-2644.3,1306.8
16.23,-2546,1276.4
16.227,-2478.1,1252.9
16.227,-2384.8,1251.2
16.225,-2251.6,1254.1
16.228,-2066.2,1264.3
16.229,-1897.8,1286.8
16.225,-1748.3,1309.3
16.226,-1535.7,1309.4
16.222,-1342.9,1321.3
16.225,-1197.7,1341.6
16.228,-1085.5,1329
16.227,-1112.7,1319.5
16.231,-1261.1,1305.8
16.229,-1508.2,1294.8
16.223,-1822.2,1296.7
16.226,-2164.4,1292.7
16.224,-2459.1,1299.8
16.223,-2717.3,1309.5
16.227,-2984.3,1311.1
16.225,-3116.8,1293.1
16.222,-3142.6,1282.4
16.222,-3159.2,1274.6
16.226,-3160,1279.1
16.226,-3132.9,1260.9
16.22,-3079.6,1264.9
16.225,-2995.3,1280.3
16.225,-2915.6,1294.6
16.228,-2867.1,1300.8
16.23,-2839.3,1303.2
16.229,-2821,1317.1
16.226,-2809.8,1318
16.222,-2811.1,1296.8
16.224,-2818.5,1297.6
16.222,-2827.7,1304
16.221,-2836.8,1308.1
16.222,-2829.7,1306.6
16.23,-2825.1,1301.3
16.228,-2822.8,1297.2
16.225,-2821.8,1315.8
16.231,-2827.4,1313.7
16.228,-2828.9,1310.1
16.223,-2826.9,1319.8
16.224,-2828.1,1328.1
16.224,-2823.3,1318.5
16.221,-2818.9,1300.1
16.217,-2820.5,1301.1
16.217,-2812.1,1314.8
16.224,-2809.4,1312.7
16.222,-2808.9,1311.5
16.218,-2805.9,1313.3
16.22,-2804.3,1293.3
16.224,-2796.3,1270.9
16.226,-2798.3,1288.3
16.225,-2808.6,1299.1
16.22,-2812.7,1294.6
16.219,-2809.1,1297.4
16.218,-2805.2,1295.4
16.218,-2798.9,1299
16.219,-2796.6,1312.8
16.22,-2794.2,1301.4
16.221,-2790,1292.6
16.219,-2791.8,1291
16.214,-2783.2,1297.6
16.219,-2782.6,1309.6
16.218,-2778.3,1310.6
16.214,-2777.1,1307.9
16.213,-2770.7,1299.1
16.215,-2765.2,1301.2
16.218,-2766.8,1298.5
16.215,-2762.8,1294.7
16.214,-2758.1,1298.1
16.213,-2756.6,1298
16.216,-2757.3,1283.1
16.216,-2759.3,1273.7
16.218,-2762.2,1273.6
16.212,-2761.8,1276.3
16.213,-2750.4,1289.2
16.213,-2740.2,1298.7
16.218,-2731.7,1305.4
16.217,-2725,1293
16.22,-2722.7,1298.4
16.215,-2720.1,1294.9
16.213,-2720.1,1291.3
16.215,-2716.3,1304.5
16.212,-2712.7,1313.5
16.211,-2712.2,1325.4
16.215,-2705.1,1318.3
16.217,-2699.3,1312.8
16.217,-2690.2,1317.4
16.216,-2683.1,1310.8
16.214,-2683.5,1297.9
16.21,-2677.6,1294.4
16.212,-2666.1,1316.3
16.218,-2658.7,1333.3
16.211,-2654.5,1322.5
16.212,-2642.2,1321.3
16.212,-2632.2,1298.3
16.211,-2622.2,1289.8
16.208,-2611.9,1297.2
16.21,-2602.3,1294.7
16.212,-2586.8,1273.3
16.212,-2575.7,1271.2
16.209,-2561.9,1275.3
16.205,-2552,1269.1
16.203,-2543.6,1271.3
16.204,-2533.2,1273.5
16.205,-2523.9,1311.9
16.204,-2504.4,1313.3
16.204,-2481.5,1287.8
16.21,-2469.7,1277.7
16.212,-2457.7,1284.3
16.214,-2444.2,1284
16.207,-2431.2,1272.6
16.203,-2416.9,1275.1
16.206,-2402,1279.1
16.209,-2386,1287.5
16.207,-2372.2,1295.3
16.2,-2359.7,1295.6
16.2,-2337,1287.5
16.201,-2320.3,1293.9
16.203,-2313.9,1277.9
16.205,-2310,1254.7
16.205,-2307.3,1260.1
16.204,-2299.7,1265.9
16.205,-2296.1,1251.9
16.206,-2284.2,1260.7
16.201,-2275.5,1276.4
16.202,-2270,1283.6
16.201,-2262.7,1291.8
16.203,-2254.6,1284.8
16.203,-2252.4,1278.8
16.2,-2261.7,1291.1
16.205,-2266.8,1290
16.199,-2276,1290.4
16.199,-2283.3,1284.1
16.203,-2291.1,1276.7
16.202,-2317.5,1272.3
16.196,-2335.8,1283.5
16.194,-2350.6,1275.7
16.201,-2365.1,1278
16.199,-2376.9,1288.1
16.201,-2399.1,1280.4
16.201,-2424.8,1282.6
16.197,-2453.2,1288.8
16.198,-2481.2,1293.7
16.197,-2510.1,1294.8
16.196,-2534.8,1293.5
16.199,-2557.9,1288.9
16.196,-2578,1282.1
16.194,-2601.4,1279.3
16.194,-2628.6,1287.2
16.193,-2651.6,1290.6
16.193,-2674,1281.2
16.194,-2698,1284.9
16.194,-2719.3,1277.4
16.192,-2731.3,1290.2
16.19,-2747.8,1296.5
16.191,-2760.7,1305.1
16.187,-2772.9,1318.8
16.189,-2774.3,1316.5
16.195,-2780.2,1317.2
16.19,-2799.9,1313.2
16.187,-2814.7,1312.7
16.189,-2825.4,1315.6
16.189,-2832.5,1306.5
