scl , ecg , emg_trap
12.599,-13821,-5280.1
12.6,-13793,-5278.1
12.603,-13783,-5279.1
12.607,-13786,-5305.4
12.611,-13777,-5318.3
12.611,-13790,-5332.4
12.61,-13808,-5331.8
12.613,-13828,-5335.6
12.612,-13819,-5333.8
12.616,-13810,-5308.6
12.615,-13814,-5316.1
12.618,-13826,-5290.9
12.621,-13816,-5276.9
12.618,-13790,-5290.9
12.622,-13805,-5325
12.628,-13804,-5329.9
12.626,-13804,-5299.9
12.628,-13794,-5304.8
12.627,-13803,-5308.8
12.628,-13806,-5300.2
12.632,-13833,-5320.7
12.629,-13844,-5313.4
12.633,-13852,-5309.6
12.632,-13872,-5314.2
12.636,-13891,-5349
12.639,-13912,-5350.6
12.642,-13936,-5328.5
12.643,-13944,-5319.5
12.644,-13947,-5309.2
12.647,-13940,-5295.5
12.647,-13926,-5295.6
12.648,-13910,-5306.7
12.646,-13883,-5324
12.652,-13894,-5415.7
12.654,-13886,-5456.6
12.653,-13878,-5411
12.656,-13871,-5349.6
12.654,-13872,-5350.6
12.655,-13910,-5317.9
12.661,-13928,-5358
12.664,-13967,-5337.1
12.664,-13979,-5371.9
12.665,-13966,-5430
12.666,-13953,-5363
12.667,-13904,-5282.5
12.669,-13814,-5276.3
12.672,-13714,-5317.6
12.67,-13600,-5266.6
12.675,-13438,-5254.3
12.677,-13208,-5270.4
12.68,-12984,-5233.6
12.679,-12784,-5168.5
12.677,-12673,-5163
12.677,-12616,-5191.7
12.682,-12571,-5511.8
12.683,-12602,-5509
12.684,-12787,-5415.3
12.684,-13037,-5320.2
12.683,-13291,-5366.1
12.685,-13486,-5430.8
12.684,-13747,-5345.3
12.688,-14000,-5300.1
12.69,-14179,-5262
12.692,-14272,-5309.4
12.693,-14267,-5354.6
12.691,-14233,-5550.2
12.694,-14208,-5520.1
12.698,-14223,-5348.3
12.701,-14218,-5056.8
12.7,-14200,-4852
12.701,-14175,-4788.3
12.702,-14092,-4874.7
12.7,-14006,-5002.7
12.703,-13960,-5094.2
12.704,-13895,-5129.3
12.708,-13853,-5144.8
12.709,-13797,-5172
12.709,-13762,-5236.5
12.711,-13756,-5261.8
12.707,-13763,-5253.2
12.713,-13757,-5251.4
12.713,-13781,-5258.9
12.715,-13786,-5226.7
12.713,-13781,-5267.5
12.716,-13776,-5290.4
12.725,-13774,-5285.5
12.724,-13796,-5283.3
12.723,-13796,-5268.3
12.723,-13776,-5272.7
12.72,-13768,-5273.3
12.725,-13757,-5284.4
12.727,-13735,-5311.4
12.725,-13737,-5296.3
12.73,-13731,-5286
12.733,-13760,-5295.9
12.73,-13765,-5336.9
12.731,-13753,-5316
12.733,-13742,-5322.9
12.736,-13727,-5396.1
12.733,-13719,-5487.2
12.734,-13717,-5784.1
12.738,-13726,-5930.5
12.737,-13727,-5667.3
12.741,-13727,-5394.6
12.741,-13717,-5152.7
12.744,-13726,-4910.1
12.745,-13730,-5035.8
12.746,-13727,-5141.1
12.748,-13731,-5390
12.746,-13726,-5531.2
12.748,-13711,-5422.9
12.75,-13712,-5269
12.753,-13690,-5110
12.751,-13715,-4983.3
12.754,-13713,-4996.8
12.756,-13712,-5091.9
12.754,-13700,-5138.4
12.757,-13705,-5179.4
12.763,-13705,-5186.4
12.764,-13706,-5185.8
12.762,-13708,-5197
12.764,-13709,-5219.9
12.762,-13707,-5288.8
12.763,-13704,-5354
12.761,-13705,-5366.5
12.762,-13722,-5424.1
12.766,-13705,-5573.8
12.771,-13694,-5629.2
12.772,-13689,-5661.4
12.772,-13700,-5593.5
12.77,-13691,-5521
12.772,-13684,-5285.4
12.775,-13673,-5056.9
12.777,-13672,-4924.7
12.777,-13682,-4894.3
12.775,-13676,-4971.5
12.78,-13670,-5074.3
12.783,-13663,-5134.7
12.782,-13672,-5167.1
12.781,-13670,-5193.1
12.778,-13686,-5218.6
12.784,-13687,-5245.4
12.784,-13709,-5257.9
12.784,-13677,-5268.6
12.786,-13666,-5275
12.791,-13635,-5275.6
12.793,-13621,-5289.1
12.794,-13638,-5296.3
12.796,-13646,-5308.9
12.797,-13641,-5297.8
12.795,-13638,-5294.6
12.796,-13627,-5292.6
12.796,-13620,-5302
12.796,-13627,-5294.6
12.796,-13631,-5340.1
12.798,-13619,-5468.7
12.801,-13607,-5640.2
12.801,-13600,-5566.2
12.803,-13606,-5436
12.807,-13606,-5329
12.809,-13593,-5169.1
12.804,-13581,-5079.9
12.806,-13573,-5118.8
12.808,-13568,-5254.4
12.808,-13558,-5279.3
12.81,-13575,-5292.6
12.81,-13577,-5285.3
12.812,-13562,-5262.5
12.814,-13537,-5262.6
12.818,-13531,-5261.9
12.819,-13529,-5275.1
12.817,-13517,-5296.3
12.819,-13499,-5303.4
12.821,-13489,-5309.7
12.819,-13479,-5322.1
12.818,-13489,-5315.7
12.822,-13471,-5334.3
12.822,-13459,-5374.9
12.822,-13448,-5368.9
12.821,-13450,-5348.6
12.826,-13455,-5327
12.824,-13441,-5286.7
12.825,-13424,-5245.1
12.828,-13374,-5219.7
12.827,-13372,-5295.2
12.828,-13346,-5314.3
12.829,-13357,-5312.2
12.834,-13372,-5315.6
12.829,-13368,-5303.2
12.833,-13379,-5240.1
12.835,-13381,-5250.8
12.836,-13381,-5245
12.838,-13383,-5226.6
12.84,-13395,-5242.8
12.837,-13395,-5261.7
12.839,-13416,-5333.8
12.838,-13405,-5384.8
12.84,-13388,-5410.5
12.842,-13373,-5491.5
12.841,-13373,-5443.9
12.844,-13384,-5432.1
12.845,-13379,-5366
12.847,-13369,-5242.8
12.847,-13348,-5353.7
12.849,-13343,-5379
12.849,-13340,-5329.6
12.852,-13328,-5288.6
12.85,-13329,-5263.7
12.848,-13358,-5246.3
12.85,-13365,-5230
12.854,-13380,-5208.7
12.853,-13402,-5187.9
12.855,-13395,-5185
12.855,-13407,-5189
12.855,-13447,-5246.9
12.853,-13460,-5260
12.855,-13477,-5244.7
12.858,-13501,-5273.8
12.857,-13482,-5289.5
12.858,-13493,-5289.6
12.86,-13524,-5276.8
12.863,-13544,-5282.1
12.861,-13557,-5300.4
12.861,-13564,-5297.4
12.859,-13586,-5293.9
12.861,-13598,-5296.9
12.862,-13613,-5309.1
12.864,-13618,-5324
12.866,-13642,-5364.6
12.867,-13659,-5420
12.868,-13680,-5436.4
12.869,-13698,-5413
12.87,-13706,-5391.4
12.868,-13701,-5354.8
12.874,-13714,-5308.6
12.872,-13713,-5236
12.873,-13710,-5203.8
12.874,-13719,-5232.3
12.872,-13729,-5253.4
12.871,-13741,-5257.1
12.875,-13745,-5270.2
12.873,-13743,-5284.9
12.877,-13748,-5289.7
12.878,-13750,-5295.8
12.879,-13762,-5291.5
12.878,-13768,-5296
12.881,-13769,-5306.3
12.879,-13779,-5311.9
12.879,-13784,-5313.3
12.884,-13777,-5324
12.886,-13775,-5327.3
12.884,-13777,-5329.5
12.879,-13771,-5336.8
12.884,-13770,-5337.7
12.886,-13769,-5347.7
12.886,-13769,-5343.3
12.882,-13778,-5348.5
12.888,-13778,-5347.3
12.889,-13786,-5340.9
12.89,-13800,-5329.9
12.892,-13804,-5314
12.891,-13802,-5318
12.893,-13790,-5342.5
12.895,-13800,-5343.7
12.894,-13798,-5342.1
12.893,-13793,-5332.1
12.894,-13792,-5327.4
12.895,-13791,-5305.6
12.898,-13780,-5305.8
12.893,-13767,-5324.4
12.895,-13776,-5337.5
12.898,-13775,-5342.1
12.898,-13785,-5344.8
12.9,-13785,-5344.9
12.9,-13779,-5344.5
12.898,-13786,-5339.8
12.899,-13788,-5333.4
12.904,-13792,-5340.1
12.905,-13796,-5338.3
12.905,-13797,-5343.8
12.906,-13789,-5353.4
12.909,-13776,-5365.9
12.908,-13772,-5357
12.909,-13766,-5360.3
12.909,-13759,-5371
12.912,-13755,-5355.8
12.914,-13762,-5343.2
12.91,-13773,-5334
12.91,-13793,-5338.7
12.916,-13812,-5331.5
12.914,-13825,-5321.1
12.915,-13812,-5332.1
12.914,-13814,-5336.6
12.911,-13829,-5345.6
12.914,-13822,-5359
12.915,-13802,-5353.4
12.915,-13778,-5386.9
12.919,-13792,-5408.9
12.918,-13801,-5385
12.918,-13808,-5369.9
12.92,-13805,-5365.8
12.92,-13801,-5352.6
12.923,-13805,-5331.9
12.924,-13797,-5329.1
12.923,-13809,-5320.3
12.923,-13822,-5301.6
12.922,-13818,-5302.6
12.925,-13826,-5316.6
12.928,-13807,-5321.6
12.928,-13823,-5324
12.932,-13827,-5323.4
12.931,-13812,-5324.8
12.932,-13813,-5326.5
12.935,-13812,-5334.5
12.935,-13803,-5340.9
12.932,-13790,-5390.7
12.932,-13780,-5406.2
12.935,-13801,-5382
12.934,-13815,-5417.9
12.937,-13822,-5409.4
12.944,-13829,-5367.6
12.942,-13833,-5333.5
12.941,-13835,-5308.7
12.94,-13850,-5283
12.94,-13865,-5286.4
12.942,-13876,-5291.6
12.943,-13870,-5305.9
12.943,-13868,-5324
12.942,-13872,-5323
12.944,-13865,-5330.6
12.943,-13861,-5335.5
12.946,-13873,-5336.2
12.95,-13880,-5337.6
12.95,-13857,-5345.1
12.951,-13846,-5354
12.951,-13848,-5356.1
12.951,-13848,-5358.1
12.954,-13850,-5394.2
12.956,-13853,-5430.8
12.955,-13836,-5418.3
12.954,-13826,-5414.8
12.959,-13828,-5400.4
12.957,-13791,-5391.4
12.958,-13768,-5448.4
12.959,-13776,-5476.1
12.96,-13797,-5468.1
12.959,-13803,-5434.4
12.963,-13831,-5385.7
12.962,-13859,-5301.3
12.963,-13876,-5213.3
12.968,-13882,-5197.7
12.965,-13888,-5249.4
12.964,-13897,-5294.3
12.968,-13906,-5317.5
12.969,-13904,-5316.5
12.967,-13871,-5311
12.972,-13818,-5307.9
12.972,-13803,-5307.9
12.974,-13801,-5309.5
12.974,-13811,-5322.3
12.977,-13833,-5323
12.977,-13853,-5335.6
12.975,-13888,-5354.7
12.982,-13905,-5353.4
12.979,-13914,-5366
12.98,-13929,-5355.1
12.984,-13931,-5353.1
12.982,-13912,-5355
12.983,-13907,-5355.2
12.983,-13909,-5349.4
12.98,-13907,-5360.4
12.983,-13908,-5348.8
12.986,-13909,-5359.5
12.991,-13902,-5421.5
12.989,-13891,-5489.1
12.991,-13884,-5510.8
12.991,-13869,-5463.3
12.992,-13857,-5403.4
12.993,-13838,-5349.2
12.992,-13798,-5308.6
12.994,-13775,-5290.1
12.995,-13778,-5304.3
12.993,-13784,-5352.6
12.997,-13806,-5392.3
12.997,-13825,-5363.5
12.999,-13832,-5351.9
12.996,-13870,-5345.4
13,-13919,-5320.8
13.004,-13934,-5298.3
13.004,-13951,-5300.2
13.005,-13962,-5306.3
13.006,-13962,-5310.1
13.009,-13957,-5322.9
13.009,-13947,-5340.5
13.011,-13933,-5347.4
13.01,-13925,-5364.6
13.01,-13915,-5378.8
13.008,-13893,-5407
13.009,-13890,-5428.7
13.013,-13881,-5425.7
13.012,-13883,-5433.1
13.013,-13863,-5439.5
13.013,-13851,-5412.4
13.014,-13870,-5361.8
13.018,-13889,-5340.3
13.018,-13903,-5324.6
13.022,-13912,-5327.7
13.027,-13916,-5339.1
13.022,-13914,-5348.3
13.022,-13907,-5370.2
13.021,-13895,-5404.5
13.025,-13876,-5384.8
13.023,-13864,-5391.3
13.025,-13854,-5399.5
13.031,-13852,-5399.9
13.031,-13855,-5379.7
13.031,-13844,-5356.1
13.034,-13847,-5335.1
13.031,-13861,-5313.4
13.035,-13889,-5322.9
13.034,-13902,-5345.1
13.034,-13912,-5329.3
13.034,-13918,-5326.6
13.036,-13908,-5338
13.039,-13916,-5338.9
13.043,-13915,-5334.6
13.043,-13901,-5345.4
13.044,-13888,-5354.5
13.048,-13878,-5353.8
13.048,-13871,-5359.1
13.044,-13874,-5364.7
13.045,-13880,-5390.6
13.05,-13897,-5384.6
13.05,-13886,-5381
13.051,-13879,-5412.6
13.053,-13869,-5410.3
13.053,-13868,-5355.9
13.055,-13863,-5351.9
13.059,-13853,-5359.9
13.059,-13866,-5366.3
13.06,-13886,-5358.9
13.062,-13840,-5368.9
13.061,-13832,-5365.1
13.063,-13851,-5356.1
13.066,-13858,-5346.2
13.065,-13863,-5340.1
13.065,-13849,-5339.7
13.065,-13869,-5364.8
13.067,-13895,-5401.4
13.069,-13934,-5434.4
13.069,-13934,-5442.5
13.068,-13908,-5421.7
13.074,-13897,-5408.3
13.076,-13862,-5382.6
13.075,-13821,-5344.2
13.08,-13800,-5320.3
13.084,-13797,-5342.2
13.082,-13790,-5423.3
13.083,-13787,-5450.1
13.082,-13793,-5427.3
13.086,-13792,-5404.7
13.085,-13810,-5380.1
13.085,-13822,-5351
13.088,-13850,-5334.8
13.091,-13862,-5332.1
13.092,-13863,-5334.9
13.089,-13857,-5348.3
13.092,-13849,-5370.3
13.095,-13841,-5472.6
13.096,-13836,-5496.6
13.096,-13844,-5461.1
13.098,-13847,-5439
13.099,-13844,-5429.2
13.103,-13837,-5383
13.103,-13847,-5349.6
13.107,-13858,-5454
13.106,-13873,-5477.6
13.107,-13896,-5421.9
13.109,-13915,-5388.5
13.109,-13932,-5377.1
13.112,-13952,-5327.2
13.115,-13930,-5243.7
13.117,-13901,-5237.8
13.117,-13881,-5307
13.12,-13872,-5367.4
13.123,-13882,-5386.8
13.122,-13881,-5412.2
13.122,-13876,-5412.8
13.124,-13906,-5394.6
13.127,-13929,-5378.4
13.124,-13943,-5373.6
13.124,-13942,-5420.5
13.124,-13938,-5399.3
13.127,-13932,-5415.2
13.133,-13926,-5437.1
13.134,-13920,-5424.5
13.138,-13919,-5373.5
13.139,-13914,-5354.7
13.139,-13924,-5385.6
13.139,-13955,-5367.9
13.14,-13953,-5330.4
13.143,-13932,-5308.1
13.149,-13903,-5300.1
13.148,-13892,-5371.3
13.152,-13910,-5393.2
13.147,-13909,-5413.8
13.15,-13905,-5460.8
13.155,-13892,-5451.9
13.154,-13891,-5438.9
13.155,-13894,-5418.6
13.155,-13909,-5352.6
13.16,-13920,-5344.1
13.164,-13933,-5413.2
13.166,-13929,-5415.2
13.169,-13920,-5385.1
13.166,-13941,-5385.4
13.17,-13988,-5350.3
13.173,-14024,-5293.6
13.171,-14054,-5271.5
13.169,-14027,-5418.9
13.17,-14015,-5498.4
13.177,-13957,-5481
13.178,-13929,-5441.4
13.177,-13892,-5401.8
13.18,-13796,-5333.4
13.185,-13682,-5255.9
13.189,-13533,-5219.3
13.186,-13307,-5298.1
13.19,-13091,-5370.3
13.191,-12869,-5497.7
13.194,-12714,-5541.1
13.195,-12653,-5458.3
13.199,-12615,-5371.8
13.199,-12612,-5309.3
13.2,-12779,-5211
13.2,-13000,-5128.4
13.2,-13334,-5146.6
13.201,-13574,-5217.2
13.204,-13848,-5258.8
13.211,-14096,-5278
13.211,-14298,-5309.7
13.21,-14383,-5440.5
13.214,-14423,-5494.1
13.218,-14413,-5500.8
13.214,-14372,-5495.5
13.217,-14340,-5476.4
13.22,-14343,-5362.5
13.222,-14298,-5220.4
13.225,-14250,-5175.2
13.228,-14174,-5180.8
13.227,-14104,-5253.6
13.227,-14067,-5301.8
13.23,-13969,-5359.5
13.234,-13923,-5417.8
13.237,-13860,-5419.3
13.24,-13823,-5385.5
13.236,-13833,-5338.4
13.24,-13841,-5262.7
13.243,-13823,-5377.1
13.242,-13821,-5510.8
13.246,-13819,-5492.5
13.249,-13819,-5482.9
13.254,-13815,-5396
13.252,-13824,-5289.4
13.253,-13816,-5192.9
13.254,-13816,-5165.1
13.26,-13816,-5263
13.264,-13813,-5408.8
13.263,-13811,-5425.3
13.263,-13813,-5375.6
13.265,-13817,-5315.2
13.267,-13803,-5290.5
13.271,-13803,-5263.4
13.269,-13789,-5237.4
13.27,-13777,-5235.4
13.273,-13763,-5288.4
13.273,-13751,-5354.5
13.278,-13753,-5409.9
13.281,-13750,-5466.1
13.283,-13750,-5453.7
13.284,-13754,-5400.6
13.283,-13751,-5432.1
13.288,-13757,-5402.4
13.288,-13791,-5299.1
13.289,-13808,-5321.8
13.292,-13792,-5330.8
13.295,-13785,-5324.6
13.297,-13796,-5342
13.296,-13769,-5357.9
13.297,-13777,-5385.7
13.303,-13765,-5535.1
13.305,-13759,-5613.8
13.304,-13755,-5582
13.308,-13740,-5461.7
13.312,-13725,-5375.2
13.309,-13723,-5287.7
13.313,-13736,-5192.1
13.313,-13743,-5151.6
13.313,-13768,-5213.2
13.315,-13783,-5293.6
13.321,-13783,-5300.3
13.322,-13773,-5346.6
13.323,-13751,-5397.8
13.329,-13734,-5452.6
13.331,-13729,-5456.9
13.329,-13723,-5419.2
13.332,-13723,-5388.3
13.333,-13722,-5331
13.336,-13713,-5274
13.34,-13700,-5217.3
13.338,-13693,-5216.3
13.342,-13702,-5267
13.343,-13685,-5301
13.344,-13697,-5319.9
13.348,-13704,-5346.3
13.354,-13710,-5386.3
13.354,-13719,-5439.3
13.351,-13736,-5437
13.355,-13722,-5422.8
13.358,-13700,-5417.4
13.36,-13678,-5403.6
13.361,-13642,-5369
13.364,-13637,-5328.7
13.364,-13655,-5466.5
13.366,-13663,-5578.7
13.37,-13635,-5536.7
13.372,-13629,-5485.8
13.371,-13615,-5354.2
13.374,-13616,-5266.3
13.375,-13637,-5214.5
13.379,-13613,-5207.5
13.382,-13610,-5271.8
13.383,-13570,-5401.8
13.384,-13552,-5427.4
13.386,-13573,-5421.1
13.391,-13595,-5379.1
13.389,-13617,-5324.2
13.393,-13647,-5253.3
13.394,-13661,-5210.4
13.397,-13673,-5216.4
13.4,-13682,-5246.4
13.4,-13671,-5340.9
13.403,-13661,-5367.2
13.407,-13645,-5447.2
13.406,-13629,-5579.6
13.406,-13613,-5587.4
13.408,-13600,-5460.3
13.409,-13572,-5404.6
13.416,-13555,-5308.8
13.419,-13543,-5174.2
13.419,-13515,-5186.2
13.417,-13500,-5237.7
13.419,-13496,-5294.3
13.422,-13508,-5324.2
13.425,-13531,-5333.2
13.429,-13540,-5325.8
13.431,-13515,-5326
13.433,-13480,-5393.5
13.433,-13468,-5403.6
13.436,-13462,-5390.1
13.438,-13444,-5364.3
13.444,-13437,-5358.6
13.443,-13433,-5333.4
13.442,-13416,-5319.2
13.444,-13413,-5399.5
13.447,-13409,-5521.8
13.45,-13389,-5528.8
13.452,-13385,-5502.6
13.456,-13384,-5388.8
13.461,-13371,-5260.1
13.456,-13345,-5177.2
13.459,-13356,-5180.1
13.464,-13355,-5220.4
13.463,-13365,-5350.4
13.46,-13360,-5446.6
13.462,-13353,-5458
13.468,-13328,-5436.7
13.466,-13303,-5443.9
13.469,-13297,-5380.2
13.475,-13258,-5258.9
13.481,-13260,-5224.6
13.483,-13263,-5268.9
13.481,-13278,-5263.6
13.485,-13289,-5269.7
13.485,-13321,-5290.1
13.485,-13354,-5298
13.49,-13380,-5305.1
13.493,-13364,-5317.6
13.497,-13358,-5334.6
13.496,-13367,-5329.8
13.493,-13384,-5456.4
13.498,-13417,-5476.8
13.499,-13439,-5495.8
13.502,-13440,-5533.8
13.503,-13461,-5521
13.502,-13492,-5484.4
13.507,-13509,-5437.8
13.508,-13539,-5418.7
13.513,-13564,-5364
13.515,-13597,-5322.6
13.518,-13640,-5341.1
13.518,-13669,-5313.4
13.518,-13689,-5301.5
13.524,-13694,-5275.4
13.525,-13680,-5242.8
13.527,-13696,-5235.8
13.527,-13704,-5270
13.529,-13721,-5297.2
13.529,-13720,-5333.7
13.532,-13731,-5448.9
13.534,-13726,-5442.1
13.536,-13731,-5360
13.54,-13753,-5303.7
13.543,-13775,-5294.4
13.542,-13777,-5274.1
13.544,-13768,-5292.6
13.547,-13776,-5317.4
13.544,-13774,-5336.6
13.551,-13760,-5345.1
13.552,-13764,-5348.6
13.554,-13766,-5356.1
13.554,-13764,-5367.6
13.559,-13769,-5372.2
13.559,-13788,-5371.4
13.56,-13784,-5378.9
13.561,-13787,-5402.8
13.563,-13771,-5446.8
13.565,-13772,-5497
13.567,-13757,-5529.7
13.573,-13750,-5497.4
13.574,-13766,-5470.6
13.572,-13788,-5517.1
13.574,-13808,-5440.1
13.576,-13823,-5367.9
13.582,-13810,-5343.9
13.582,-13815,-5302.6
13.582,-13806,-5308.2
13.587,-13810,-5311.7
13.585,-13809,-5335.5
13.586,-13807,-5335
13.59,-13810,-5386.7
13.593,-13800,-5384.1
13.595,-13804,-5343.7
13.594,-13806,-5361.6
13.597,-13793,-5342.7
13.603,-13791,-5348.4
13.6,-13772,-5340.3
13.603,-13779,-5314.3
13.604,-13782,-5330.7
13.603,-13786,-5340.9
13.608,-13792,-5332.3
13.608,-13792,-5348.9
13.612,-13787,-5342.7
13.619,-13800,-5335.3
13.619,-13818,-5345.4
13.62,-13812,-5339.2
13.618,-13798,-5353.2
13.623,-13785,-5376.2
13.627,-13792,-5400.9
13.627,-13785,-5410.9
13.629,-13802,-5404.3
13.632,-13813,-5408.1
13.629,-13790,-5409.7
13.63,-13784,-5389.5
13.636,-13771,-5371.5
13.64,-13777,-5404
13.64,-13774,-5424.9
13.642,-13764,-5396.4
13.645,-13766,-5369.7
13.648,-13770,-5359.8
13.647,-13771,-5337.1
13.647,-13783,-5347.3
13.651,-13786,-5436.6
13.658,-13769,-5510.3
13.657,-13777,-5539.4
13.656,-13781,-5506.4
13.656,-13787,-5418.4
13.661,-13793,-5307.3
13.658,-13797,-5273.5
13.659,-13798,-5272.5
13.665,-13813,-5330.1
13.668,-13801,-5391.3
13.67,-13789,-5399.7
13.672,-13781,-5392.7
13.673,-13767,-5415.8
13.676,-13771,-5399
13.679,-13780,-5348.2
13.679,-13784,-5343.2
13.68,-13793,-5367.9
13.679,-13789,-5340.3
13.684,-13772,-5396.8
13.688,-13783,-5554.7
13.689,-13794,-5520.4
13.687,-13801,-5374.9
13.69,-13797,-5331.4
13.694,-13809,-5284.4
13.693,-13799,-5225.3
13.695,-13813,-5199.8
13.696,-13832,-5241
13.698,-13820,-5316.1
13.7,-13805,-5352.6
13.702,-13798,-5341.8
13.706,-13801,-5357.7
13.707,-13803,-5418.4
13.707,-13816,-5410.4
13.712,-13832,-5413.9
13.716,-13835,-5417.2
13.718,-13822,-5360.6
13.72,-13805,-5381
13.718,-13805,-5471.9
13.716,-13804,-5458.2
13.725,-13816,-5592.2
13.722,-13832,-5590.5
13.724,-13831,-5519.4
13.726,-13849,-5427.1
13.729,-13866,-5327.5
13.729,-13867,-5204.3
13.733,-13831,-5185.1
13.737,-13826,-5205.9
13.736,-13826,-5188
13.739,-13808,-5190.4
13.74,-13819,-5238.4
13.742,-13826,-5290.4
13.743,-13816,-5305.9
13.746,-13813,-5327.6
13.744,-13831,-5341.5
13.751,-13839,-5351.4
13.752,-13825,-5344.7
13.751,-13831,-5338.8
13.752,-13837,-5351.9
13.759,-13849,-5368.3
13.756,-13843,-5382.6
13.76,-13848,-5432.5
13.764,-13841,-5433.4
13.762,-13834,-5466.4
13.768,-13832,-5470.3
13.765,-13832,-5435.5
13.764,-13829,-5440.1
13.768,-13832,-5376.8
13.77,-13833,-5393.7
13.772,-13832,-5390.1
13.776,-13833,-5540.5
13.774,-13845,-5559.1
13.78,-13842,-5496.3
13.778,-13817,-5380.8
13.781,-13819,-5295.1
13.784,-13823,-5220.1
13.78,-13836,-5180.3
13.783,-13855,-5252.2
13.789,-13859,-5291
13.785,-13853,-5309.3
13.786,-13835,-5330
13.791,-13831,-5313.4
13.793,-13823,-5346.6
13.797,-13837,-5369.9
13.795,-13845,-5397
13.799,-13850,-5401.3
13.802,-13839,-5450.2
13.8,-13832,-5423.4
13.798,-13846,-5327.9
13.799,-13865,-5331
13.797,-13866,-5327.4
13.804,-13852,-5295.3
13.809,-13837,-5284.9
13.812,-13822,-5296.3
13.816,-13833,-5319
13.815,-13820,-5325.2
13.815,-13801,-5334.4
13.812,-13814,-5342.3
13.813,-13817,-5351
13.818,-13822,-5358.5
13.821,-13825,-5366.1
13.819,-13815,-5372.9
13.824,-13830,-5384.1
13.822,-13830,-5382.3
13.827,-13826,-5389.8
13.827,-13825,-5390.7
13.825,-13830,-5384.5
13.831,-13833,-5396.6
13.83,-13831,-5447.6
13.835,-13842,-5446
13.837,-13835,-5424.8
13.837,-13836,-5393.4
13.839,-13843,-5366.9
13.84,-13836,-5345.9
13.843,-13833,-5345.3
13.84,-13835,-5345
13.844,-13834,-5386.4
13.847,-13833,-5402.3
13.845,-13825,-5403.7
13.845,-13822,-5404.1
13.844,-13829,-5389
13.85,-13828,-5381.3
13.845,-13836,-5373.9
13.846,-13842,-5408
13.85,-13838,-5405.6
13.85,-13852,-5389.3
13.86,-13851,-5406.6
13.861,-13841,-5401.1
13.861,-13834,-5384
13.859,-13829,-5379.5
13.864,-13832,-5361.9
13.862,-13834,-5363.7
13.859,-13839,-5405.1
13.862,-13845,-5428.6
13.866,-13852,-5425.8
13.873,-13849,-5394.7
13.869,-13842,-5356.2
13.87,-13851,-5321.8
13.87,-13846,-5325.1
13.874,-13838,-5323
13.875,-13857,-5331.2
13.878,-13864,-5355.2
13.881,-13884,-5367.8
13.883,-13877,-5369.4
13.881,-13861,-5378.1
13.883,-13835,-5384.6
13.886,-13833,-5377.2
13.89,-13834,-5414.3
13.888,-13835,-5441.6
13.885,-13840,-5439.2
13.887,-13844,-5424.5
13.889,-13842,-5395
13.887,-13858,-5355.5
13.889,-13862,-5356
13.896,-13852,-5348.6
13.896,-13841,-5345.6
13.894,-13833,-5356.9
13.897,-13819,-5384.4
13.9,-13819,-5388.3
13.903,-13818,-5385.5
13.903,-13824,-5386.2
13.9,-13832,-5385.8
13.901,-13826,-5387.5
13.903,-13833,-5380
13.908,-13835,-5383.4
13.911,-13838,-5392
13.91,-13842,-5405.3
13.915,-13836,-5424.1
13.917,-13836,-5433.2
13.915,-13823,-5428.2
13.916,-13824,-5416.5
13.918,-13842,-5395.5
13.92,-13838,-5368.2
13.917,-13837,-5357.3
13.916,-13840,-5355.6
13.919,-13842,-5374.1
13.927,-13859,-5379.8
13.926,-13870,-5377.6
13.927,-13858,-5378.7
13.927,-13830,-5377.2
13.931,-13808,-5375
13.93,-13801,-5376.1
13.933,-13802,-5379.3
13.936,-13809,-5383.3
13.935,-13821,-5383.5
13.935,-13822,-5404.9
13.936,-13823,-5410.3
13.938,-13830,-5402.3
13.937,-13832,-5400.6
13.942,-13827,-5395
13.945,-13833,-5388.4
13.942,-13836,-5384.5
13.943,-13831,-5388.7
13.949,-13823,-5388.6
13.945,-13833,-5426.2
13.948,-13840,-5433.4
13.951,-13857,-5421.5
13.949,-13875,-5409.3
13.95,-13874,-5427.9
13.957,-13837,-5424.9
13.956,-13826,-5402.3
13.954,-13834,-5378.5
13.956,-13833,-5369.6
13.953,-13844,-5365.9
13.955,-13837,-5363.2
13.962,-13836,-5375.3
13.964,-13823,-5393.2
13.964,-13827,-5473.6
13.966,-13824,-5528.5
13.966,-13823,-5513
13.968,-13830,-5482.9
13.969,-13837,-5418
13.973,-13834,-5349.1
13.973,-13837,-5292.8
13.975,-13831,-5283.1
13.973,-13845,-5314.7
13.976,-13844,-5356.1
13.978,-13857,-5366.3
13.976,-13849,-5387.2
13.983,-13831,-5386.9
13.979,-13821,-5374.1
13.983,-13818,-5363
13.984,-13833,-5373.7
13.986,-13842,-5397.7
13.984,-13834,-5394.4
13.984,-13830,-5386.1
13.987,-13838,-5378.6
13.986,-13843,-5380.5
13.989,-13844,-5380.3
13.99,-13839,-5380
13.994,-13829,-5439
13.994,-13831,-5442.3
13.992,-13836,-5416.3
13.99,-13840,-5404.2
13.999,-13834,-5393.5
13.999,-13819,-5364.8
14.001,-13827,-5346
13.999,-13823,-5373.9
13.997,-13832,-5433.9
13.999,-13834,-5442.1
14.005,-13834,-5417.9
14.007,-13824,-5397.4
14.009,-13825,-5373.3
14.003,-13815,-5357.6
14.009,-13822,-5349.6
14.008,-13841,-5372.6
14.008,-13852,-5403.5
14.006,-13855,-5406.3
14.007,-13843,-5404.4
14.015,-13830,-5397.6
14.019,-13840,-5389.2
14.013,-13845,-5411.6
14.018,-13843,-5404.5
14.013,-13833,-5383.1
14.019,-13828,-5411.3
14.021,-13833,-5469.1
14.023,-13829,-5478.1
14.024,-13829,-5454.4
14.025,-13844,-5408.2
14.02,-13840,-5373.3
14.023,-13830,-5317.4
14.026,-13823,-5319.7
14.022,-13828,-5330.6
14.029,-13828,-5362.4
14.029,-13822,-5386.9
14.029,-13817,-5402
14.03,-13831,-5432.2
14.031,-13833,-5425.9
14.033,-13833,-5399.5
14.034,-13823,-5386.3
14.031,-13832,-5376.5
14.032,-13821,-5370.5
14.035,-13833,-5363.9
14.038,-13838,-5350.6
14.039,-13853,-5357.1
14.04,-13855,-5375.7
14.037,-13854,-5379.1
14.039,-13823,-5381.5
14.038,-13812,-5398.7
14.04,-13807,-5404.5
14.043,-13798,-5409.6
14.042,-13804,-5412.7
14.043,-13807,-5422
14.04,-13806,-5539.5
14.044,-13803,-5552.5
14.047,-13814,-5525.1
14.05,-13821,-5484.1
14.048,-13815,-5426.2
14.05,-13788,-5355.6
14.054,-13778,-5314.3
14.052,-13784,-5284.5
14.045,-13779,-5291.6
14.056,-13793,-5310.1
14.059,-13817,-5336.1
14.055,-13818,-5356.6
14.055,-13799,-5371.4
14.057,-13785,-5398
14.058,-13766,-5438.1
14.06,-13738,-5445.3
14.059,-13729,-5464.4
14.064,-13718,-5458.2
14.063,-13715,-5441.7
14.057,-13722,-5419.5
14.063,-13718,-5386.2
14.061,-13736,-5369.3
14.062,-13743,-5377.9
14.064,-13751,-5372.5
14.065,-13774,-5382.5
14.067,-13769,-5386.8
14.067,-13785,-5389.2
14.069,-13803,-5383.9
14.071,-13796,-5391.6
14.07,-13787,-5391.9
14.069,-13793,-5425.3
14.073,-13807,-5464.5
14.069,-13793,-5453.4
14.072,-13793,-5483.7
14.074,-13790,-5471.1
14.075,-13798,-5433.9
14.073,-13816,-5386.7
14.079,-13836,-5382
14.076,-13843,-5372.8
14.078,-13872,-5366.6
14.083,-13874,-5378
14.082,-13858,-5384.5
14.075,-13847,-5382.9
14.076,-13842,-5365.6
14.081,-13845,-5350.8
14.085,-13849,-5340.6
14.082,-13856,-5340.3
14.082,-13854,-5361
14.085,-13856,-5390.1
14.088,-13857,-5395.6
14.089,-13858,-5400.6
14.085,-13874,-5401.8
14.089,-13872,-5405.9
14.088,-13864,-5406.2
14.085,-13860,-5404
14.087,-13857,-5396.1
14.09,-13870,-5396.2
14.092,-13867,-5408.5
14.089,-13863,-5414.2
14.088,-13849,-5441.4
14.09,-13838,-5443.1
14.092,-13853,-5432
14.095,-13859,-5429.2
14.096,-13851,-5431.5
14.094,-13849,-5415.8
14.094,-13864,-5404.4
14.092,-13857,-5403.1
14.09,-13854,-5393.4
14.094,-13851,-5379.2
14.096,-13847,-5373.3
14.096,-13839,-5381.6
14.099,-13837,-5390.6
14.103,-13839,-5394.2
14.102,-13840,-5387.4
14.103,-13846,-5399.6
14.101,-13871,-5403.4
14.098,-13908,-5409.9
14.102,-13939,-5410.2
14.099,-13948,-5411
14.099,-13957,-5402.6
14.099,-13925,-5397.4
14.102,-13937,-5407.5
14.097,-13913,-5407.4
14.105,-13845,-5411.7
14.103,-13749,-5416.6
14.103,-13636,-5418.7
14.103,-13449,-5421.8
14.106,-13236,-5423.5
14.102,-13023,-5411.9
14.104,-12816,-5400.5
14.11,-12695,-5385.5
14.106,-12643,-5377
14.106,-12604,-5360.2
14.108,-12628,-5355.5
14.107,-12750,-5338.9
14.108,-12956,-5338.8
14.111,-13214,-5338.8
14.111,-13436,-5387.3
14.107,-13671,-5403.5
14.111,-13903,-5406.1
14.107,-14154,-5390.8
14.111,-14244,-5374.3
14.115,-14304,-5356.3
14.113,-14315,-5335.7
14.114,-14307,-5352.4
14.112,-14283,-5374
14.111,-14254,-5372
14.11,-14212,-5373.9
14.113,-14121,-5372.1
14.116,-14034,-5374
14.109,-13974,-5378
14.111,-13915,-5442.1
14.114,-13856,-5452.1
14.114,-13796,-5423.7
14.111,-13756,-5466
14.114,-13752,-5451.4
14.108,-13758,-5401.3
14.115,-13780,-5375.4
14.114,-13783,-5360.5
14.118,-13785,-5390.7
14.117,-13785,-5389.8
14.118,-13772,-5382.4
14.117,-13783,-5384.7
14.115,-13787,-5378.4
14.112,-13789,-5371.8
14.114,-13765,-5373.7
14.117,-13763,-5380.6
14.115,-13763,-5389.2
14.117,-13765,-5390
14.116,-13768,-5391.8
14.115,-13745,-5382.9
14.116,-13738,-5383.3
14.118,-13727,-5387.3
14.119,-13734,-5389.4
14.118,-13739,-5396.3
14.12,-13746,-5397.3
14.112,-13744,-5393.4
14.113,-13739,-5392.1
14.119,-13735,-5394.9
14.113,-13737,-5393.6
14.117,-13739,-5397.4
14.118,-13739,-5398.3
14.116,-13738,-5412.8
14.118,-13731,-5418.3
14.117,-13733,-5420.8
14.115,-13741,-5423.6
14.12,-13738,-5423
14.116,-13735,-5420.4
14.118,-13717,-5408.8
14.119,-13718,-5407.7
14.121,-13710,-5414.1
14.124,-13716,-5418.8
14.12,-13706,-5409.8
14.12,-13704,-5411.7
14.118,-13708,-5403
14.116,-13714,-5414
14.114,-13719,-5485.2
14.117,-13718,-5472.6
14.116,-13705,-5453.5
14.116,-13726,-5437.3
14.119,-13727,-5417.7
14.117,-13722,-5353.3
14.116,-13707,-5330.9
14.11,-13711,-5331.9
14.116,-13701,-5333.5
14.116,-13676,-5354.1
14.116,-13673,-5368.2
14.112,-13670,-5379.6
14.114,-13680,-5388.7
14.116,-13683,-5396.3
14.113,-13685,-5406.8
14.115,-13680,-5415.7
14.116,-13677,-5412.9
14.115,-13673,-5410
14.118,-13678,-5409.6
14.116,-13672,-5401.1
14.116,-13669,-5392.8
14.117,-13671,-5389.4
14.117,-13674,-5386.3
14.115,-13682,-5398
14.116,-13682,-5400.7
14.114,-13669,-5400
14.113,-13669,-5419.9
14.107,-13661,-5417.3
14.116,-13653,-5407.2
14.112,-13644,-5406.4
14.113,-13641,-5405
14.115,-13634,-5407.6
14.111,-13629,-5406.2
14.103,-13626,-5402.9
14.109,-13633,-5412.6
14.11,-13626,-5424.5
14.113,-13623,-5421.2
14.111,-13605,-5414
14.111,-13600,-5415.1
14.114,-13600,-5422.2
14.112,-13594,-5430.4
14.109,-13587,-5474.3
14.112,-13596,-5463.9
14.11,-13594,-5438
14.112,-13580,-5448.3
14.114,-13578,-5420.8
14.112,-13589,-5391.4
14.11,-13579,-5393.7
14.111,-13552,-5387.8
14.104,-13530,-5381.5
14.107,-13520,-5384.6
14.11,-13527,-5375.3
14.106,-13524,-5371.5
14.104,-13523,-5376.8
14.102,-13518,-5379.8
14.102,-13520,-5384.5
14.11,-13508,-5384.4
14.103,-13485,-5387.7
14.105,-13478,-5390.5
14.102,-13471,-5396.3
14.102,-13477,-5402.2
14.105,-13475,-5402.9
14.104,-13455,-5403.6
14.101,-13454,-5403.5
14.095,-13450,-5411.8
14.103,-13447,-5414.8
14.108,-13443,-5413
14.103,-13428,-5410.8
14.102,-13399,-5403.1
14.103,-13382,-5404.9
14.095,-13378,-5398.3
14.1,-13373,-5422.2
14.099,-13368,-5449.4
14.094,-13378,-5441
14.093,-13385,-5435.5
14.095,-13381,-5427.6
14.091,-13370,-5393
14.092,-13351,-5367.1
14.095,-13339,-5371.7
14.089,-13332,-5381.9
14.089,-13335,-5389.9
14.088,-13340,-5392.3
14.087,-13335,-5395.5
14.087,-13323,-5387.8
14.089,-13330,-5389.3
14.086,-13329,-5399.1
14.088,-13320,-5412.2
14.089,-13304,-5412
14.084,-13313,-5404.6
14.08,-13299,-5400.7
14.08,-13305,-5401.2
14.08,-13312,-5445.8
14.078,-13325,-5468.1
14.077,-13335,-5448.1
14.076,-13348,-5429.3
14.073,-13363,-5426.1
14.076,-13383,-5414.7
14.078,-13395,-5423.7
14.076,-13397,-5405.2
14.074,-13427,-5396.7
14.076,-13446,-5401
14.073,-13462,-5397
14.074,-13467,-5379.6
14.071,-13483,-5378
14.067,-13522,-5380.1
14.073,-13550,-5394.2
14.072,-13557,-5396.4
14.065,-13546,-5396.4
14.068,-13566,-5417.6
14.068,-13571,-5410.9
14.069,-13571,-5405.4
14.067,-13585,-5406.8
14.066,-13593,-5413.2
14.063,-13608,-5412
14.063,-13635,-5416.6
14.06,-13650,-5411.9
14.061,-13651,-5414.2
14.058,-13673,-5416.6
14.057,-13679,-5419.9
14.056,-13674,-5413.8
14.059,-13661,-5410.1
14.056,-13671,-5405.9
14.051,-13684,-5408.3
14.052,-13685,-5411.4
14.05,-13706,-5414.9
14.053,-13718,-5410.6
14.049,-13720,-5418
14.046,-13715,-5421.1
14.046,-13706,-5414.8
14.044,-13708,-5418.6
14.045,-13711,-5423.4
14.045,-13724,-5426.3
14.046,-13724,-5460.9
14.041,-13729,-5463
14.038,-13740,-5448.4
14.036,-13749,-5435.7
14.039,-13731,-5426
14.035,-13714,-5404.6
14.034,-13720,-5392.9
14.035,-13717,-5400.2
14.035,-13714,-5409.1
14.031,-13723,-5415.6
14.028,-13727,-5416
14.029,-13727,-5415.8
14.029,-13731,-5414.6
14.026,-13734,-5416.2
14.026,-13722,-5417.4
14.029,-13724,-5421.9
14.023,-13721,-5422.6
14.021,-13724,-5426.3
14.028,-13731,-5415.8
14.02,-13733,-5417.5
14.017,-13734,-5417.5
14.015,-13726,-5414.9
14.018,-13721,-5418.8
14.014,-13733,-5428.5
14.018,-13728,-5436
14.014,-13727,-5437.9
14.01,-13728,-5437.8
14.007,-13740,-5434.9
14.01,-13734,-5432.5
14.006,-13731,-5429.2
14.003,-13728,-5428.8
14.008,-13733,-5433
14.012,-13734,-5437
14.004,-13732,-5433.1
14.002,-13725,-5425.9
14.005,-13714,-5430.9
13.996,-13735,-5429.2
13.999,-13738,-5430.1
13.997,-13730,-5431
14,-13717,-5424.6
13.994,-13733,-5427.8
13.996,-13720,-5430.8
13.994,-13739,-5428.9
13.995,-13743,-5434.1
13.99,-13728,-5435.4
13.987,-13720,-5438.1
13.986,-13720,-5435.3
13.982,-13719,-5433.7
13.986,-13717,-5429.2
13.984,-13719,-5428.2
13.98,-13716,-5429.1
13.982,-13729,-5428.9
13.975,-13732,-5431.3
13.979,-13737,-5433.4
13.978,-13745,-5435.2
13.976,-13731,-5436.3
13.971,-13760,-5438.4
13.97,-13750,-5433.4
13.973,-13738,-5433.3
13.972,-13727,-5424.5
13.97,-13721,-5424.9
13.965,-13716,-5422
13.966,-13734,-5426.9
13.967,-13730,-5432.8
13.963,-13740,-5435.3
13.961,-13738,-5433.7
13.959,-13740,-5433.6
13.959,-13745,-5434.6
13.961,-13750,-5430.5
13.963,-13746,-5432
13.955,-13748,-5429.9
13.949,-13741,-5434
13.949,-13745,-5435.5
13.954,-13749,-5434.5
13.953,-13755,-5435.4
13.95,-13758,-5436.5
13.95,-13768,-5431.8
13.941,-13772,-5431
13.942,-13775,-5433.1
13.94,-13784,-5430.2
13.937,-13789,-5428.4
13.939,-13795,-5431.1
13.938,-13787,-5433.9
13.939,-13778,-5438.1
13.928,-13786,-5434
13.932,-13782,-5437.4
13.93,-13778,-5434.4
13.933,-13786,-5437.9
13.934,-13783,-5432.3
13.931,-13770,-5434
13.924,-13768,-5433
13.923,-13770,-5435.1
13.918,-13772,-5431
13.919,-13780,-5432.3
13.919,-13773,-5437.9
13.915,-13791,-5448.4
13.918,-13796,-5469.8
13.915,-13806,-5467.6
13.919,-13798,-5454.7
13.91,-13812,-5459.5
13.912,-13801,-5459.4
13.911,-13788,-5450.5
13.914,-13782,-5430.6
13.909,-13779,-5421.6
13.905,-13803,-5424.9
13.902,-13806,-5419.8
13.903,-13814,-5419
13.898,-13793,-5423.1
13.898,-13794,-5426.9
13.899,-13789,-5426.6
13.898,-13789,-5424.1
13.895,-13800,-5428
13.892,-13792,-5427
13.893,-13793,-5430.7
13.886,-13789,-5441.8
13.889,-13800,-5434.6
13.888,-13796,-5430.5
13.888,-13797,-5425.7
13.881,-13793,-5415.8
13.882,-13810,-5410.3
13.882,-13814,-5416.6
13.88,-13813,-5409.6
13.882,-13800,-5399.8
13.873,-13800,-5413.3
13.871,-13792,-5439.3
13.869,-13803,-5455.3
13.87,-13827,-5445.2
13.871,-13822,-5445.2
13.868,-13819,-5444.7
13.866,-13805,-5433.1
13.863,-13796,-5430.8
13.864,-13798,-5422.8
13.864,-13790,-5436.8
13.857,-13797,-5450.9
13.851,-13796,-5463.7
13.855,-13795,-5463.1
13.852,-13808,-5462.9
13.85,-13819,-5467.6
13.849,-13836,-5463.1
13.846,-13836,-5443
13.851,-13833,-5436
13.847,-13803,-5440.8
13.845,-13804,-5439.2
13.847,-13801,-5444.9
13.843,-13807,-5450.6
13.843,-13797,-5446.3
13.839,-13803,-5447
13.835,-13814,-5452.6
13.837,-13818,-5451.1
13.834,-13814,-5448.6
13.837,-13811,-5443.2
13.829,-13814,-5442.1
13.826,-13811,-5440.8
13.832,-13811,-5442.1
13.825,-13809,-5439.2
13.822,-13820,-5438.7
13.824,-13822,-5443
13.826,-13838,-5448.9
13.819,-13845,-5449.8
13.822,-13853,-5446.5
13.818,-13818,-5445.6
13.816,-13795,-5438.9
13.818,-13779,-5463.9
13.812,-13773,-5464.9
13.811,-13791,-5464.6
13.808,-13789,-5467.6
13.805,-13795,-5461.6
13.8,-13803,-5458
13.806,-13809,-5458.8
13.8,-13805,-5447.6
13.797,-13815,-5439.5
13.801,-13821,-5426.8
13.797,-13826,-5426.4
13.794,-13806,-5425.9
13.789,-13812,-5427.4
13.788,-13817,-5425.2
13.789,-13817,-5433.7
13.786,-13819,-5433.2
13.783,-13834,-5438.3
13.785,-13834,-5439.2
13.788,-13811,-5435.6
13.778,-13799,-5433.3
13.777,-13798,-5436.7
13.778,-13800,-5432.3
13.778,-13804,-5436.1
13.773,-13813,-5437.3
13.766,-13807,-5438.1
13.766,-13819,-5438.4
13.771,-13818,-5440.3
13.769,-13814,-5445.7
13.764,-13813,-5436.2
13.762,-13809,-5434.8
13.764,-13814,-5435.4
13.761,-13825,-5437.7
13.756,-13813,-5441.4
13.759,-13809,-5443.5
13.753,-13814,-5445
13.752,-13821,-5443.2
13.755,-13828,-5444.6
13.751,-13818,-5447.5
13.748,-13822,-5447.9
13.745,-13818,-5448.4
13.748,-13815,-5445.3
13.747,-13824,-5446.3
13.743,-13809,-5440.1
13.745,-13804,-5442.8
13.746,-13795,-5447.3
13.744,-13800,-5445.4
13.735,-13799,-5458
13.734,-13804,-5463.6
13.733,-13818,-5472.1
13.737,-13821,-5483.1
13.73,-13812,-5497.6
13.726,-13811,-5477.6
13.725,-13814,-5443.5
13.724,-13819,-5425.7
13.725,-13818,-5426
13.722,-13816,-5418.7
13.719,-13819,-5413.5
13.723,-13841,-5418.9
13.72,-13840,-5429.2
13.711,-13831,-5440.1
13.708,-13823,-5435.8
13.711,-13820,-5432.9
13.703,-13800,-5439.8
13.703,-13795,-5442.3
13.703,-13794,-5441.9
13.707,-13794,-5442.9
13.705,-13810,-5445.1
13.702,-13818,-5443.8
13.701,-13794,-5440.7
13.698,-13797,-5443.7
13.697,-13797,-5446
13.694,-13800,-5444.3
13.696,-13808,-5442.6
13.691,-13810,-5443.6
13.687,-13801,-5441.7
13.686,-13796,-5446.7
13.679,-13797,-5445.3
13.681,-13809,-5452
13.683,-13812,-5456.9
13.681,-13811,-5456.2
13.678,-13803,-5444.4
13.676,-13810,-5447.4
13.674,-13817,-5442.5
13.673,-13819,-5442.2
13.672,-13816,-5446.5
13.667,-13823,-5444.6
13.671,-13835,-5445.6
13.668,-13830,-5445.9
13.666,-13846,-5447.1
13.664,-13850,-5445.6
13.661,-13844,-5436.4
13.663,-13825,-5439.9
13.66,-13825,-5441.4
13.655,-13797,-5443.6
13.65,-13802,-5445.7
13.652,-13808,-5443.9
13.65,-13822,-5452.6
13.647,-13831,-5452.6
13.65,-13838,-5455.4
13.644,-13849,-5457.7
13.643,-13853,-5454.8
13.647,-13807,-5456.1
13.64,-13780,-5458.2
13.637,-13776,-5450.9
13.634,-13778,-5457.6
13.637,-13781,-5448.1
13.632,-13799,-5448.7
13.631,-13811,-5447.8
13.63,-13804,-5449
13.628,-13806,-5449.9
13.624,-13814,-5451.8
13.627,-13816,-5445.7
13.625,-13807,-5444.9
13.625,-13811,-5446.5
13.624,-13810,-5450.1
13.62,-13818,-5452.2
13.616,-13816,-5453.2
13.618,-13822,-5454
13.612,-13818,-5454.5
13.613,-13814,-5458.8
13.612,-13823,-5450.9
13.607,-13843,-5443.8
13.609,-13833,-5441.6
13.606,-13817,-5440.9
13.605,-13810,-5447.7
13.599,-13808,-5443.8
13.6,-13817,-5454.6
13.598,-13813,-5463
13.596,-13815,-5460.6
13.593,-13818,-5462.3
13.592,-13831,-5456.4
13.596,-13824,-5450.8
13.586,-13834,-5457.5
13.589,-13812,-5479.4
13.593,-13811,-5483.7
13.586,-13817,-5475.3
13.586,-13808,-5469
13.584,-13813,-5463.4
13.579,-13822,-5448.4
13.579,-13814,-5441.1
13.577,-13818,-5439.4
13.571,-13793,-5438.7
13.574,-13807,-5441.6
13.573,-13807,-5441.2
13.568,-13802,-5442.8
13.567,-13805,-5441.2
13.569,-13816,-5441.6
13.567,-13817,-5443.7
13.564,-13821,-5442.4
13.557,-13817,-5446.3
13.561,-13813,-5452.7
13.559,-13807,-5450.6
13.556,-13814,-5449.7
13.553,-13809,-5453.9
13.555,-13815,-5454.6
13.549,-13812,-5446.6
13.552,-13810,-5448.3
13.552,-13812,-5451.3
13.547,-13827,-5451.6
13.547,-13818,-5454.8
13.54,-13826,-5456.1
13.539,-13819,-5457.4
13.541,-13814,-5455.9
13.54,-13814,-5448.5
13.54,-13834,-5449.6
13.538,-13828,-5449.3
13.532,-13829,-5448.3
13.53,-13816,-5449.9
13.529,-13816,-5453.7
13.526,-13796,-5458.4
13.528,-13802,-5455.5
13.526,-13808,-5460
13.52,-13810,-5456.4
13.521,-13814,-5453.3
13.519,-13801,-5455.5
13.518,-13806,-5455.4
13.518,-13796,-5446.3
13.515,-13814,-5445.4
13.516,-13821,-5448.2
13.51,-13821,-5450.7
13.51,-13808,-5447.7
13.51,-13801,-5447
13.51,-13784,-5446.2
13.506,-13789,-5439
13.504,-13792,-5434.9
13.501,-13796,-5433
13.505,-13792,-5438.6
13.499,-13792,-5448.4
13.501,-13799,-5453.2
13.495,-13816,-5453.8
13.494,-13816,-5461.8
13.495,-13810,-5456.9
13.497,-13819,-5462.9
13.489,-13813,-5458.2
13.492,-13801,-5455.4
13.483,-13805,-5458.2
13.485,-13799,-5462.9
13.482,-13804,-5457.6
13.484,-13800,-5456.7
13.48,-13806,-5455.8
13.482,-13825,-5456.2
13.48,-13831,-5457.2
13.476,-13827,-5456.1
13.475,-13823,-5458.1
13.472,-13819,-5458.9
13.469,-13803,-5456.8
13.466,-13809,-5448.8
13.467,-13815,-5454.4
13.47,-13817,-5462.1
13.467,-13819,-5454.7
13.461,-13822,-5460.3
13.459,-13816,-5465.1
13.459,-13817,-5463.5
13.459,-13800,-5455.6
13.457,-13794,-5457
13.454,-13796,-5452.4
13.455,-13788,-5448.1
13.453,-13790,-5446.5
13.453,-13795,-5451
13.449,-13809,-5459.4
13.443,-13803,-5461.8
13.446,-13793,-5466.4
13.445,-13793,-5467.3
13.441,-13794,-5469.1
13.439,-13786,-5462.4
13.438,-13775,-5457.6
13.437,-13775,-5458.2
13.438,-13780,-5459.4
13.438,-13774,-5468.3
13.437,-13774,-5475.3
13.432,-13764,-5469
13.43,-13762,-5465.3
13.427,-13772,-5468.5
13.428,-13786,-5468.1
13.429,-13792,-5463.4
13.423,-13775,-5469.2
13.42,-13789,-5464.4
13.421,-13786,-5464.7
13.419,-13745,-5464.3
13.418,-13734,-5472.9
13.416,-13742,-5465.5
13.419,-13723,-5471.2
13.416,-13706,-5484.5
13.413,-13693,-5478.8
13.41,-13668,-5466.8
13.409,-13690,-5464.3
13.408,-13705,-5463.6
13.403,-13734,-5463.9
13.407,-13743,-5461.5
13.4,-13756,-5459.6
13.401,-13761,-5466.9
13.399,-13773,-5467.1
13.394,-13764,-5463.1
13.399,-13766,-5458.7
13.395,-13757,-5461.9
13.394,-13738,-5453.9
13.392,-13750,-5451.5
13.392,-13767,-5454.8
13.391,-13781,-5456.4
13.387,-13796,-5456.8
13.383,-13811,-5459.7
13.386,-13831,-5455.4
13.386,-13826,-5459.8
13.392,-13826,-5461
13.378,-13856,-5461.9
13.381,-13866,-5459.9
13.379,-13860,-5448.4
13.374,-13839,-5447.3
13.373,-13838,-5447.4
13.372,-13832,-5442.4
13.372,-13828,-5450
13.369,-13841,-5459.4
13.37,-13851,-5465.9
13.367,-13859,-5474
13.368,-13855,-5470.8
13.366,-13849,-5469.5
13.364,-13838,-5466
13.36,-13838,-5465.2
13.357,-13835,-5460.1
13.361,-13836,-5462.6
13.357,-13839,-5470.3
13.352,-13842,-5469.2
13.353,-13849,-5470.4
13.358,-13851,-5463.3
13.354,-13840,-5460.4
13.353,-13845,-5464.1
13.347,-13836,-5456.6
13.348,-13831,-5450.6
13.35,-13834,-5457.5
13.342,-13835,-5457.6
13.344,-13841,-5452.1
13.343,-13846,-5447
13.339,-13833,-5447.6
13.338,-13824,-5450.3
13.339,-13823,-5448.6
13.339,-13823,-5454
13.337,-13816,-5453.8
13.333,-13824,-5461.1
13.327,-13822,-5462.4
13.329,-13838,-5465.7
13.325,-13876,-5468.1
13.329,-13935,-5470.4
13.325,-13964,-5475.6
13.322,-13954,-5473.7
13.325,-13937,-5470.7
13.318,-13937,-5477.8
13.32,-13918,-5474.4
13.317,-13872,-5475.3
13.316,-13779,-5474
13.316,-13682,-5473.9
13.311,-13522,-5473.1
13.313,-13300,-5469.1
13.308,-13079,-5467.2
13.31,-12893,-5459.9
13.306,-12792,-5442.9
13.31,-12719,-5439.4
13.306,-12629,-5420.4
13.306,-12601,-5391.6
13.307,-12726,-5383.5
13.306,-12922,-5378.4
13.3,-13193,-5383.5
13.293,-13458,-5392.2
13.299,-13701,-5401.1
13.294,-13908,-5417.1
13.295,-14151,-5426.1
13.288,-14245,-5429.5
13.296,-14300,-5431.8
13.297,-14284,-5432.3
13.289,-14282,-5434.6
13.294,-14291,-5447.2
13.289,-14270,-5441
13.286,-14223,-5443
13.285,-14130,-5443.4
13.283,-14025,-5449.2
13.283,-13938,-5451.4
13.287,-13844,-5445.2
13.274,-13797,-5442.9
13.278,-13761,-5434.5
13.277,-13743,-5439.4
13.275,-13776,-5444.1
13.271,-13780,-5441.6
13.27,-13776,-5449.4
13.27,-13786,-5454.9
13.271,-13785,-5456.5
13.269,-13798,-5457.8
13.269,-13798,-5461.6
13.273,-13784,-5458.6
13.266,-13780,-5451.7
13.26,-13769,-5452.7
13.258,-13766,-5446
13.262,-13754,-5446
13.26,-13749,-5452.9
13.258,-13745,-5451.4
13.26,-13746,-5453.6
13.253,-13747,-5458.2
13.25,-13743,-5456.3
13.251,-13751,-5454.8
13.25,-13758,-5454.4
13.245,-13749,-5450.6
13.25,-13752,-5457
13.246,-13744,-5462.8
13.244,-13727,-5458.4
13.241,-13720,-5454.5
13.241,-13725,-5456.8
13.241,-13719,-5453.5
13.238,-13732,-5460.4
13.24,-13724,-5458.6
13.237,-13719,-5452
13.238,-13709,-5451.5
13.233,-13707,-5456.1
13.232,-13713,-5461.6
13.232,-13711,-5460.5
13.232,-13716,-5461.8
13.234,-13739,-5456.1
13.233,-13730,-5460.3
13.227,-13696,-5467.4
13.229,-13696,-5466.1
13.232,-13707,-5461.8
13.226,-13693,-5463.1
13.223,-13699,-5458.8
13.219,-13689,-5451.5
13.22,-13692,-5455.2
13.218,-13684,-5453.9
13.218,-13689,-5446.8
13.217,-13699,-5444.7
13.22,-13695,-5449.1
13.212,-13700,-5452.6
13.21,-13696,-5451.1
13.212,-13686,-5451.3
13.211,-13679,-5455.4
13.207,-13682,-5458
13.201,-13686,-5457.7
13.204,-13692,-5458.2
13.206,-13686,-5451.3
13.2,-13674,-5459.4
13.205,-13672,-5463.2
13.199,-13668,-5465.6
13.195,-13682,-5468.6
13.199,-13676,-5463.4
13.197,-13674,-5462
13.198,-13663,-5461
13.194,-13667,-5460.4
13.189,-13664,-5463
13.195,-13661,-5462.1
13.188,-13655,-5459.9
13.189,-13651,-5466.5
13.185,-13641,-5459.8
13.186,-13636,-5451.5
13.18,-13636,-5445.7
13.185,-13628,-5437
13.178,-13631,-5441.6
13.18,-13650,-5450.9
13.179,-13645,-5449.9
13.174,-13635,-5453.1
13.178,-13615,-5454.1
13.178,-13612,-5456.2
13.171,-13610,-5461.9
13.175,-13604,-5465.2
13.174,-13613,-5463.2
13.175,-13614,-5456.6
13.17,-13602,-5457.5
13.168,-13593,-5457.7
13.165,-13590,-5454.1
13.163,-13590,-5450.3
13.161,-13592,-5453
13.164,-13599,-5451.7
13.159,-13586,-5456.8
13.162,-13590,-5461
13.157,-13586,-5457
13.156,-13556,-5456.1
13.154,-13542,-5453.3
13.155,-13543,-5449.4
13.156,-13538,-5458.9
13.152,-13542,-5466.3
13.151,-13536,-5461.2
13.153,-13511,-5466.4
13.151,-13510,-5467.7
13.148,-13490,-5461.6
13.147,-13484,-5459.4
13.147,-13483,-5453.8
13.146,-13467,-5451
13.137,-13466,-5450.6
13.142,-13471,-5455.1
13.138,-13464,-5455.5
13.139,-13462,-5452
13.145,-13453,-5457.8
13.141,-13444,-5457.2
13.142,-13430,-5453.7
13.137,-13409,-5455.1
13.133,-13403,-5458.6
13.132,-13385,-5457.3
13.124,-13387,-5450.5
13.124,-13392,-5450.4
13.127,-13395,-5444.3
13.13,-13391,-5454.5
13.125,-13374,-5456.4
13.12,-13377,-5447.4
13.126,-13376,-5453.2
13.123,-13368,-5455
13.121,-13373,-5458.4
13.121,-13358,-5462.5
13.121,-13355,-5458.5
13.122,-13352,-5454.3
13.12,-13344,-5450.8
13.116,-13341,-5461.6
13.111,-13353,-5460.1
13.11,-13346,-5457.8
13.112,-13340,-5453.9
13.113,-13340,-5454.2
13.106,-13347,-5452.3
13.107,-13353,-5448.5
13.104,-13355,-5453.5
13.104,-13363,-5453.9
13.097,-13367,-5455.3
13.103,-13376,-5453.3
13.101,-13395,-5457.4
13.105,-13417,-5459.7
13.101,-13418,-5461.8
13.1,-13423,-5455.6
13.1,-13423,-5461.7
13.094,-13453,-5463.2
13.092,-13458,-5457
13.092,-13478,-5449.6
13.089,-13498,-5450.4
13.091,-13511,-5457.1
13.092,-13523,-5461.5
13.086,-13548,-5468.4
13.086,-13564,-5465.6
13.082,-13573,-5467.5
13.085,-13591,-5465
13.089,-13590,-5456
13.082,-13597,-5460.1
13.081,-13614,-5455.5
13.079,-13631,-5462.8
13.078,-13638,-5464.4
13.074,-13634,-5457.9
13.072,-13642,-5461.9
13.073,-13646,-5459.7
13.071,-13657,-5458.6
13.076,-13674,-5453.4
13.069,-13701,-5465.6
13.071,-13722,-5454.6
13.072,-13715,-5456.4
13.067,-13694,-5461.1
13.064,-13715,-5459.1
13.064,-13719,-5467.4
13.063,-13715,-5466.7
13.059,-13732,-5467
13.059,-13747,-5475
13.061,-13732,-5473.8
13.06,-13731,-5472.2
13.056,-13737,-5471
13.058,-13737,-5462.6
13.054,-13730,-5465.3
13.051,-13729,-5465.3
13.048,-13733,-5465.8
13.053,-13744,-5472.5
13.047,-13749,-5470.1
13.054,-13747,-5477.7
13.049,-13743,-5471
13.047,-13745,-5467.6
13.043,-13760,-5467.2
13.044,-13756,-5468.9
13.045,-13757,-5466.2
13.045,-13750,-5459
13.042,-13744,-5455.6
13.036,-13734,-5460.5
13.035,-13742,-5461.7
13.039,-13738,-5470.1
13.039,-13732,-5464.6
13.037,-13753,-5465
13.034,-13752,-5469.1
13.028,-13727,-5462.8
13.032,-13729,-5470.9
13.032,-13734,-5473.4
13.028,-13731,-5467
13.029,-13746,-5467.2
13.026,-13748,-5468
13.024,-13737,-5476.3
13.025,-13762,-5478.7
13.024,-13755,-5481.8
13.025,-13747,-5466.6
13.022,-13725,-5463.6
13.023,-13726,-5464.8
13.023,-13728,-5465.1
13.018,-13737,-5464.3
13.016,-13742,-5467.7
13.016,-13753,-5462.6
13.012,-13755,-5465.2
13.01,-13750,-5464.5
13.009,-13752,-5469.4
13.014,-13756,-5468.9
13.011,-13758,-5462.1
13.011,-13763,-5467.3
13.006,-13756,-5468.2
13.003,-13743,-5473.8
13.003,-13732,-5472.9
13.006,-13753,-5472.5
13.003,-13760,-5469.6
13.006,-13768,-5470.2
13.003,-13762,-5470.5
13.004,-13772,-5474.1
13.001,-13767,-5474.2
12.997,-13760,-5474.6
12.994,-13756,-5472.6
12.996,-13760,-5473.9
12.998,-13763,-5472.6
12.994,-13764,-5478.5
12.998,-13779,-5475.4
12.997,-13788,-5471.5
12.99,-13782,-5466.5
12.994,-13765,-5469.5
12.992,-13768,-5462.6
12.988,-13771,-5463.1
12.985,-13775,-5459.9
12.986,-13780,-5451.5
12.983,-13759,-5450.3
12.981,-13757,-5448
12.981,-13759,-5463.5
12.98,-13764,-5467.1
12.982,-13773,-5475.3
12.981,-13768,-5472.6
12.976,-13792,-5476.7
12.97,-13781,-5471.8
12.977,-13802,-5472.6
12.971,-13786,-5479.6
12.973,-13790,-5480.7
12.973,-13773,-5475.5
12.971,-13793,-5478
12.972,-13813,-5476.9
12.969,-13818,-5483.3
12.968,-13813,-5481.8
12.969,-13800,-5477.4
12.968,-13810,-5473.3
12.966,-13802,-5475.4
12.967,-13804,-5470.1
12.963,-13801,-5471.7
12.962,-13805,-5476.9
12.962,-13810,-5471.9
12.961,-13816,-5471.1
12.96,-13820,-5478.3
12.958,-13822,-5481.5
12.956,-13816,-5481.7
12.956,-13804,-5472.9
12.956,-13803,-5472.6
12.952,-13803,-5471.5
12.949,-13808,-5472
12.95,-13810,-5467.8
12.951,-13811,-5472.9
12.95,-13821,-5471.6
12.95,-13827,-5468.1
12.949,-13831,-5468.8
12.945,-13842,-5465.3
12.946,-13836,-5467.6
12.945,-13831,-5465.5
12.946,-13834,-5465.6
12.94,-13842,-5465.1
12.943,-13829,-5463.4
12.941,-13810,-5462
12.936,-13817,-5465.9
12.939,-13804,-5473.8
12.938,-13810,-5477
12.94,-13819,-5468.6
12.935,-13821,-5469.3
12.935,-13816,-5466.6
12.932,-13804,-5467.1
12.932,-13808,-5464.5
12.926,-13793,-5470.1
12.927,-13807,-5469.4
12.923,-13818,-5476.9
12.931,-13822,-5472.3
12.927,-13826,-5474.1
12.923,-13827,-5471
12.922,-13827,-5468.3
12.921,-13821,-5459.7
12.921,-13824,-5461.9
12.92,-13824,-5465.2
12.921,-13818,-5464.7
12.922,-13822,-5460
12.914,-13822,-5469.4
12.917,-13831,-5473
12.914,-13828,-5471.6
12.914,-13833,-5464.2
12.916,-13832,-5471.6
12.911,-13832,-5473.7
12.912,-13841,-5469.9
12.911,-13860,-5467
12.909,-13862,-5469.1
12.908,-13839,-5470.6
12.906,-13815,-5476.1
12.907,-13812,-5473.3
12.909,-13812,-5474.8
12.907,-13815,-5471.2
12.901,-13815,-5472
12.901,-13822,-5473.5
12.899,-13825,-5465.8
12.899,-13823,-5474.4
12.899,-13826,-5476.6
12.894,-13826,-5473.1
12.894,-13829,-5470.1
12.895,-13844,-5471.2
12.898,-13846,-5475.3
12.893,-13841,-5480.2
12.886,-13842,-5475.5
12.894,-13817,-5477.6
12.889,-13805,-5476.4
12.89,-13815,-5470.8
12.89,-13808,-5473.7
12.883,-13831,-5472.8
12.885,-13825,-5479.4
12.888,-13840,-5479.5
12.883,-13837,-5480.4
12.882,-13846,-5480.8
12.88,-13844,-5475.7
12.882,-13840,-5474.3
12.877,-13838,-5474.4
12.874,-13837,-5470.1
12.877,-13841,-5465.5
12.874,-13831,-5467.3
12.876,-13831,-5468.8
12.878,-13833,-5465.6
12.869,-13838,-5467.8
12.872,-13838,-5454.1
12.875,-13836,-5463.7
12.872,-13835,-5462.7
12.871,-13833,-5461.8
12.87,-13838,-5458.9
12.868,-13832,-5458.6
12.863,-13830,-5466.1
12.864,-13836,-5470.2
12.864,-13832,-5474.5
12.865,-13834,-5482.1
12.861,-13827,-5482.6
12.864,-13833,-5482.7
12.861,-13838,-5478
12.86,-13839,-5479.5
12.859,-13828,-5480.3
12.858,-13835,-5471.9
12.854,-13843,-5474.9
12.857,-13839,-5475.4
12.855,-13837,-5474.2
12.857,-13834,-5474.8
12.85,-13835,-5476
12.85,-13831,-5479.5
12.85,-13831,-5478
12.855,-13837,-5471.8
12.852,-13851,-5466.8
12.85,-13854,-5468.5
12.85,-13841,-5469.8
12.847,-13827,-5471.7
12.846,-13827,-5476.4
12.844,-13826,-5478.1
12.85,-13838,-5476.2
12.84,-13839,-5472.6
12.838,-13833,-5473.1
12.839,-13836,-5467.1
12.836,-13838,-5459.1
12.839,-13822,-5464.5
12.838,-13831,-5464.8
12.836,-13845,-5465.9
12.835,-13858,-5469.3
12.837,-13858,-5467.8
12.838,-13856,-5471.4
12.834,-13849,-5471.8
12.829,-13828,-5471.5
12.832,-13817,-5477.1
12.833,-13815,-5469.6
12.83,-13822,-5475.6
12.831,-13818,-5474.8
12.829,-13825,-5477.1
12.827,-13833,-5482.6
12.825,-13829,-5482.7
12.824,-13840,-5488.2
12.824,-13837,-5485.1
12.822,-13836,-5483.5
12.825,-13839,-5476.5
12.826,-13839,-5474.4
12.818,-13837,-5468.6
12.82,-13827,-5465.6
12.817,-13831,-5469.6
12.815,-13829,-5467.4
12.817,-13831,-5474.2
12.814,-13825,-5462.7
12.812,-13839,-5465.4
12.813,-13839,-5467.7
12.809,-13844,-5466.8
12.812,-13848,-5465.5
12.809,-13840,-5459.1
12.804,-13832,-5460.9
12.81,-13838,-5464.3
12.81,-13844,-5472.1
12.803,-13841,-5479.9
12.804,-13833,-5481.3
12.809,-13834,-5476.3
12.803,-13835,-5481.6
12.805,-13838,-5485.1
12.798,-13836,-5485.6
12.8,-13845,-5482.4
12.798,-13835,-5476.1
12.805,-13850,-5472.3
12.801,-13839,-5475
12.801,-13834,-5479.4
12.797,-13840,-5488
12.792,-13843,-5488.1
12.798,-13839,-5488.1
12.797,-13840,-5479.9
12.793,-13842,-5480.6
12.793,-13837,-5475.9
12.79,-13834,-5474.3
12.791,-13841,-5466.6
12.79,-13844,-5464.5
12.789,-13848,-5464.2
12.789,-13842,-5467.2
12.784,-13849,-5470.4
12.783,-13859,-5478.4
12.788,-13876,-5478.4
12.787,-13867,-5481.8
12.779,-13858,-5478.1
12.783,-13840,-5467
12.78,-13831,-5467.7
12.782,-13830,-5467.3
12.78,-13858,-5471.9
12.783,-13857,-5475.7
12.779,-13857,-5474.1
12.78,-13844,-5478.8
12.776,-13841,-5475.1
12.777,-13831,-5465.8
12.775,-13825,-5472.8
12.772,-13833,-5466.3
12.772,-13835,-5473.3
12.767,-13836,-5465.5
12.771,-13840,-5471.3
12.767,-13840,-5467.3
12.772,-13849,-5472.1
12.77,-13847,-5478
12.769,-13843,-5479.3
12.761,-13853,-5481.5
12.765,-13859,-5471.7
12.764,-13858,-5471.1
12.763,-13844,-5474.5
12.759,-13833,-5466.8
12.764,-13843,-5466.7
12.759,-13838,-5464.4
12.763,-13829,-5473
12.759,-13831,-5470.9
12.761,-13834,-5483.7
12.766,-13840,-5484.5
12.754,-13840,-5479.9
12.758,-13847,-5476.1
12.757,-13835,-5469.5
12.756,-13842,-5471.1
12.749,-13837,-5473.3
12.752,-13842,-5472.8
12.749,-13856,-5473
12.752,-13859,-5472.6
12.749,-13846,-5476.1
12.748,-13848,-5479.5
12.749,-13849,-5481.3
12.747,-13851,-5473.2
12.745,-13851,-5467.8
12.743,-13846,-5470.7
12.747,-13850,-5468.9
12.746,-13846,-5468.7
12.742,-13850,-5467.9
12.747,-13855,-5460.8
12.743,-13858,-5471
12.743,-13851,-5481.1
12.745,-13855,-5483.2
12.74,-13852,-5478.2
12.742,-13847,-5477.2
12.734,-13846,-5479.6
12.731,-13861,-5479.5
12.735,-13831,-5472.1
12.732,-13845,-5476.4
12.731,-13858,-5476.7
12.734,-13870,-5475.3
12.73,-13878,-5482.6
12.734,-13877,-5476.7
12.727,-13857,-5473.4
12.73,-13815,-5466
12.73,-13806,-5467.5
12.726,-13816,-5467.4
12.731,-13818,-5467.8
12.733,-13824,-5463.1
12.725,-13834,-5464.8
12.728,-13841,-5468.8
12.726,-13838,-5476.8
12.724,-13842,-5470.7
12.728,-13840,-5476.6
12.723,-13834,-5476.2
12.725,-13830,-5469.9
12.719,-13829,-5470
12.719,-13837,-5467.4
12.722,-13840,-5464.7
12.72,-13864,-5457
12.717,-13872,-5468.2
12.716,-13850,-5469
12.715,-13848,-5474
12.72,-13847,-5476.9
12.715,-13829,-5472.6
12.717,-13827,-5476.9
12.713,-13829,-5474.6
12.714,-13824,-5475.7
12.71,-13827,-5475.9
12.711,-13835,-5483.7
12.709,-13837,-5480.5
12.711,-13837,-5479.9
12.71,-13837,-5482.7
12.711,-13847,-5480.4
12.712,-13831,-5464.4
12.706,-13820,-5466.9
12.709,-13817,-5475.3
12.711,-13824,-5480.8
12.705,-13827,-5489.8
12.706,-13833,-5488.5
12.706,-13823,-5492.7
12.7,-13814,-5491.3
12.697,-13813,-5490.7
12.704,-13816,-5481.4
12.698,-13829,-5483.6
12.703,-13831,-5479
12.701,-13824,-5478.4
12.701,-13819,-5474.8
12.695,-13787,-5478.2
12.698,-13760,-5476.8
12.698,-13745,-5473.5
12.698,-13732,-5481.2
12.696,-13730,-5477.6
12.697,-13737,-5479.6
12.691,-13727,-5471.4
12.69,-13741,-5467.9
12.695,-13760,-5464
12.691,-13780,-5475.9
12.69,-13804,-5480.5
12.688,-13820,-5486.3
12.689,-13830,-5488.9
12.691,-13814,-5480.8
12.694,-13822,-5484.3
12.684,-13796,-5479.6
12.684,-13798,-5482.6
12.681,-13792,-5482.8
12.682,-13807,-5480
12.687,-13810,-5472
12.68,-13818,-5474.6
12.68,-13827,-5479.2
12.68,-13843,-5468.6
12.679,-13857,-5468.1
12.68,-13855,-5472.6
12.675,-13851,-5474.4
12.677,-13872,-5470.8
12.676,-13892,-5464.3
12.674,-13899,-5465.3
12.675,-13907,-5466
12.676,-13890,-5464.1
12.673,-13890,-5474.9
12.676,-13899,-5473.7
12.675,-13915,-5481.7
12.677,-13912,-5475.7
12.673,-13891,-5483.5
12.673,-13896,-5477
12.673,-13886,-5470.9
12.668,-13872,-5466.9
12.672,-13882,-5466.1
12.671,-13873,-5467.4
12.665,-13879,-5466.1
12.669,-13879,-5467.4
12.666,-13883,-5464.5
12.668,-13889,-5473.8
12.666,-13900,-5474.1
12.665,-13900,-5470.6
12.664,-13887,-5470.4
12.666,-13884,-5467.6
12.661,-13879,-5467.7
12.665,-13884,-5470.1
12.656,-13891,-5469.2
12.659,-13886,-5470.9
12.662,-13887,-5471
12.66,-13896,-5467.5
12.661,-13895,-5467
12.655,-13894,-5467
12.662,-13896,-5467.7
12.658,-13887,-5468.4
12.659,-13879,-5461.5
12.654,-13875,-5465.6
12.652,-13878,-5468.7
12.654,-13905,-5471.4
12.651,-13937,-5478.1
12.654,-13989,-5477.1
12.656,-14002,-5474.2
12.651,-14003,-5465.1
12.651,-13978,-5471
12.652,-13989,-5473
12.656,-13941,-5469.9
12.647,-13859,-5475.6
12.651,-13764,-5486.9
12.648,-13611,-5483.6
12.65,-13394,-5484.6
12.644,-13198,-5477.4
12.646,-12985,-5477.1
12.647,-12811,-5463.9
12.649,-12750,-5454.3
12.644,-12675,-5445.3
12.645,-12610,-5414
12.643,-12683,-5395.2
12.646,-12883,-5383.4
12.639,-13182,-5382.4
12.643,-13434,-5387.7
12.641,-13685,-5393.2
12.643,-13924,-5408.5
12.639,-14144,-5420.1
12.635,-14275,-5426.1
12.635,-14326,-5427.2
12.634,-14361,-5431.2
12.634,-14327,-5439.3
12.64,-14295,-5451.8
12.635,-14296,-5451.4
12.635,-14275,-5458.4
12.639,-14217,-5462.4
12.633,-14148,-5467.2
12.635,-14059,-5461.8
12.634,-13978,-5458.9
12.637,-13916,-5453.2
12.632,-13862,-5453.4
12.631,-13811,-5450.1
12.629,-13791,-5438.7
12.631,-13799,-5443
12.63,-13808,-5451.9
12.625,-13814,-5458.2
12.629,-13822,-5460.3
12.628,-13826,-5461.4
12.626,-13833,-5471.4
12.631,-13837,-5463.7
12.627,-13825,-5457
12.625,-13817,-5458.4
12.623,-13815,-5451.2
12.624,-13815,-5452.8
12.626,-13808,-5448.8
12.619,-13796,-5446.3
12.621,-13808,-5449.6
12.619,-13809,-5448.5
12.617,-13808,-5455.1
12.624,-13795,-5455.1
12.622,-13802,-5456.1
12.622,-13801,-5447.9
12.622,-13821,-5456.9
12.617,-13818,-5461.1
12.615,-13777,-5461.6
12.618,-13778,-5469.8
12.615,-13773,-5471.1
12.617,-13777,-5473.5
12.615,-13776,-5473.6
12.612,-13767,-5471.1
12.618,-13761,-5467.8
12.615,-13760,-5467.6
12.614,-13756,-5461.1
12.615,-13765,-5458.7
12.615,-13770,-5461.1
12.61,-13764,-5460.7
12.616,-13765,-5464.2
12.613,-13765,-5470.9
12.608,-13763,-5464.8
12.606,-13763,-5463.6
12.614,-13772,-5459.6
12.607,-13768,-5458.6
12.606,-13769,-5451.5
12.609,-13767,-5450.6
12.607,-13753,-5462.4
12.604,-13764,-5461
12.606,-13756,-5457.1
12.609,-13747,-5465.9
12.608,-13743,-5472.9
12.601,-13742,-5475.4
12.604,-13738,-5474.8
12.601,-13733,-5459.6
12.606,-13731,-5458.7
12.601,-13733,-5455
12.608,-13746,-5457.7
12.606,-13738,-5463.1
12.601,-13742,-5467.1
12.599,-13754,-5471.1
12.601,-13755,-5464.2
12.604,-13747,-5469.8
12.602,-13733,-5457.8
12.601,-13723,-5458.5
12.603,-13716,-5460.7
12.597,-13712,-5455.2
12.599,-13704,-5459.1
12.594,-13709,-5458.7
12.598,-13710,-5453.5
12.597,-13708,-5462.7
12.595,-13712,-5460.5
12.596,-13711,-5464.4
12.594,-13714,-5467.5
12.593,-13708,-5464.2
12.593,-13701,-5458.8
12.594,-13698,-5466
12.589,-13692,-5459.9
12.592,-13690,-5462.3
12.59,-13681,-5455.8
12.588,-13689,-5460.9
12.589,-13688,-5458.2
12.59,-13688,-5457.6
12.591,-13681,-5456.9
12.584,-13690,-5453.2
12.586,-13683,-5447
12.584,-13665,-5447.4
12.588,-13650,-5445.7
12.585,-13632,-5451.4
12.585,-13623,-5465.6
12.589,-13623,-5466.7
12.587,-13619,-5473
12.583,-13623,-5475.2
12.586,-13615,-5474.3
12.585,-13622,-5473.1
12.585,-13611,-5464
12.579,-13607,-5457.2
12.583,-13598,-5454.2
12.58,-13587,-5453.2
12.586,-13585,-5458.7
12.582,-13578,-5450.5
12.58,-13578,-5454.8
12.578,-13576,-5457.3
12.582,-13573,-5460.7
12.581,-13566,-5455.6
12.582,-13560,-5448.8
12.576,-13541,-5453
12.577,-13532,-5453.2
12.578,-13522,-5453.6
12.572,-13511,-5450.4
12.575,-13499,-5457.4
12.571,-13496,-5456.1
12.576,-13514,-5464.5
12.574,-13501,-5470.1
12.57,-13487,-5467.4
12.573,-13476,-5464.5
12.573,-13470,-5453.6
12.577,-13449,-5450.9
12.571,-13439,-5450.9
12.574,-13428,-5457.4
12.575,-13429,-5461.3
12.569,-13447,-5457.1
12.572,-13445,-5452.4
12.576,-13431,-5452.9
12.57,-13416,-5450.8
12.574,-13413,-5454.4
12.573,-13405,-5451.6
12.57,-13392,-5456.6
12.572,-13389,-5457.3
12.567,-13394,-5462.2
12.566,-13383,-5463.8
12.567,-13393,-5466.4
12.567,-13391,-5468.4
12.565,-13396,-5467.5
12.567,-13402,-5465.5
12.562,-13402,-5460.3
12.567,-13401,-5455.3
12.566,-13402,-5453.5
12.57,-13414,-5445.5
12.562,-13436,-5444.5
12.564,-13446,-5454.7
12.569,-13450,-5455.5
12.562,-13448,-5451.2
12.559,-13472,-5460.7
12.56,-13487,-5455.3
12.562,-13495,-5455.2
12.556,-13516,-5451
12.562,-13526,-5450.9
12.563,-13540,-5445.8
12.562,-13554,-5451.2
12.558,-13565,-5455.4
12.558,-13584,-5471.1
12.558,-13608,-5470.6
12.557,-13616,-5467.1
12.557,-13639,-5467.6
12.556,-13651,-5469.4
12.558,-13665,-5466.6
12.558,-13674,-5470.4
12.552,-13681,-5467.6
12.557,-13696,-5468.4
12.552,-13706,-5468.3
12.551,-13723,-5465.5
12.551,-13736,-5469
12.551,-13749,-5467.9
12.555,-13762,-5473.4
12.551,-13776,-5474.4
12.551,-13786,-5469.6
12.55,-13771,-5465.6
12.552,-13753,-5466.7
12.549,-13762,-5465.1
12.546,-13771,-5466.2
12.548,-13780,-5464.2
12.545,-13782,-5459.7
12.549,-13782,-5467
12.55,-13796,-5469.8
12.547,-13793,-5469.1
12.544,-13782,-5464.6
12.543,-13789,-5463.7
12.547,-13795,-5459.5
12.544,-13792,-5460.6
12.543,-13797,-5459.9
12.545,-13791,-5468.8
12.547,-13789,-5472.3
12.542,-13795,-5476.7
12.544,-13808,-5471.5
12.545,-13806,-5470.9
12.546,-13810,-5466.7
12.546,-13813,-5462.9
12.545,-13808,-5459.6
12.541,-13814,-5457.4
12.539,-13812,-5456.5
12.54,-13809,-5462.9
12.541,-13806,-5473.4
12.537,-13808,-5473.3
12.543,-13812,-5473.5
12.538,-13811,-5478.3
12.54,-13822,-5479.8
12.539,-13827,-5474.9
12.54,-13821,-5472.2
12.537,-13818,-5467.5
12.537,-13824,-5457.9
12.536,-13819,-5453.3
12.537,-13820,-5454.1
12.534,-13815,-5462.7
12.534,-13816,-5455.9
12.533,-13817,-5456.7
12.535,-13820,-5454.1
12.533,-13808,-5459.1
12.533,-13816,-5460.5
12.529,-13809,-5455.9
12.535,-13805,-5458.1
12.531,-13799,-5459.1
12.53,-13810,-5467.1
12.532,-13804,-5471.8
12.53,-13807,-5474.3
12.529,-13812,-5473.8
12.53,-13809,-5469.4
12.53,-13806,-5470.8
12.53,-13806,-5462.5
12.53,-13802,-5459.8
12.529,-13810,-5457.6
12.531,-13818,-5454.9
12.525,-13819,-5459.5
12.532,-13818,-5459.3
12.53,-13830,-5459
12.529,-13820,-5463.7
12.526,-13843,-5467
12.523,-13837,-5463.7
12.52,-13835,-5465.5
12.524,-13843,-5470
12.525,-13843,-5468.9
12.523,-13836,-5465.8
12.522,-13847,-5466.4
12.521,-13843,-5473.3
12.521,-13848,-5478.6
12.525,-13861,-5480.3
12.519,-13865,-5475.1
12.524,-13857,-5474.1
12.521,-13841,-5462.6
12.521,-13829,-5456.7
12.518,-13824,-5455
12.519,-13834,-5454.5
12.517,-13837,-5459
12.518,-13829,-5462
12.516,-13834,-5460.2
12.518,-13841,-5459.9
12.518,-13841,-5472.5
12.519,-13842,-5469
12.514,-13849,-5459.8
12.518,-13845,-5461.6
12.515,-13848,-5460.6
12.513,-13853,-5456.8
12.515,-13861,-5461
12.515,-13870,-5456.6
12.517,-13871,-5461.6
12.515,-13863,-5462.7
12.517,-13863,-5468.1
12.514,-13869,-5463.4
12.509,-13869,-5461.6
12.514,-13872,-5458.5
12.511,-13868,-5457.8
12.516,-13875,-5459.9
12.513,-13883,-5460.3
12.514,-13891,-5464.3
12.513,-13892,-5464.7
12.513,-13899,-5463.4
12.514,-13887,-5460.2
12.513,-13872,-5463.9
12.514,-13884,-5463.4
12.511,-13877,-5463.7
12.511,-13874,-5462.7
12.512,-13874,-5459.8
12.509,-13880,-5461.9
12.509,-13874,-5469.5
12.51,-13881,-5473.4
12.506,-13888,-5460.6
12.507,-13896,-5459.2
12.508,-13907,-5459.8
12.51,-13900,-5457.9
12.506,-13904,-5460
12.504,-13888,-5473.5
12.502,-13893,-5470.8
12.501,-13895,-5465.9
12.503,-13896,-5470.9
12.502,-13899,-5472.5
12.499,-13896,-5476.9
12.504,-13902,-5472.3
12.504,-13905,-5476.9
12.501,-13909,-5470.8
12.505,-13906,-5469.5
12.5,-13894,-5471.7
12.503,-13887,-5468.6
12.503,-13885,-5469.3
12.501,-13888,-5470.6
12.498,-13890,-5468.7
12.5,-13896,-5472.3
12.5,-13899,-5477.9
12.503,-13908,-5473.9
12.497,-13916,-5470.6
12.496,-13913,-5463.9
12.495,-13916,-5461.4
12.492,-13891,-5459.9
12.495,-13895,-5460.4
12.5,-13895,-5452.8
12.495,-13891,-5460.4
12.497,-13902,-5460.7
12.494,-13903,-5468.2
12.496,-13903,-5469.6
12.493,-13902,-5475.4
12.495,-13905,-5471.1
12.491,-13903,-5477
12.489,-13904,-5475.3
12.493,-13894,-5470.5
12.492,-13906,-5467.6
12.496,-13904,-5469.1
12.495,-13901,-5469.3
12.491,-13896,-5468.1
12.489,-13903,-5467
12.488,-13905,-5463.4
12.491,-13900,-5466.3
12.489,-13910,-5454
12.49,-13908,-5457.7
12.487,-13905,-5456.1
12.488,-13896,-5457.7
12.488,-13917,-5466.8
12.489,-13929,-5468
12.49,-13925,-5472.5
12.487,-13910,-5471.2
12.484,-13903,-5474.1
12.488,-13892,-5469.9
12.485,-13892,-5469.8
12.483,-13890,-5469.4
12.486,-13889,-5470.8
12.486,-13896,-5471
12.486,-13902,-5473.9
12.488,-13910,-5482.1
12.484,-13912,-5477
12.486,-13915,-5483.3
12.482,-13908,-5481.2
12.486,-13926,-5482.1
12.481,-13918,-5481.9
12.478,-13916,-5478.5
12.482,-13910,-5473.6
12.485,-13915,-5469.7
12.476,-13916,-5472.3
12.48,-13913,-5467.2
12.477,-13912,-5474.1
12.477,-13914,-5474.8
12.477,-13919,-5469.6
12.477,-13913,-5470.8
12.48,-13919,-5462.4
12.472,-13927,-5464.3
12.476,-13916,-5467.4
12.476,-13914,-5467.6
12.476,-13904,-5467.2
12.476,-13903,-5470
12.476,-13910,-5479
12.481,-13918,-5473
12.48,-13917,-5468.6
12.476,-13921,-5468.3
12.475,-13921,-5478.1
12.48,-13916,-5484.3
12.475,-13912,-5475.2
12.47,-13912,-5470.7
12.474,-13912,-5470
12.47,-13913,-5468.2
12.475,-13924,-5472.1
12.47,-13946,-5470.3
12.469,-13944,-5464.6
12.47,-13935,-5471.5
12.473,-13915,-5465
12.471,-13917,-5475.5
12.468,-13908,-5478.1
12.468,-13902,-5479.5
12.468,-13908,-5469.1
12.469,-13914,-5468.6
12.47,-13917,-5469.7
12.467,-13916,-5475.7
12.472,-13929,-5486.6
12.471,-13929,-5486.2
12.468,-13934,-5485.9
12.464,-13955,-5480.9
12.467,-13955,-5479.9
12.463,-13936,-5473.6
12.466,-13932,-5474.6
12.465,-13916,-5475.4
12.47,-13907,-5476.9
12.467,-13914,-5475.2
12.465,-13915,-5473.5
12.464,-13919,-5478.8
12.464,-13926,-5483.3
12.464,-13930,-5477.9
12.468,-13927,-5479.3
12.461,-13929,-5475.3
12.464,-13925,-5471
12.461,-13915,-5476.6
12.458,-13916,-5470.6
12.458,-13912,-5471.9
12.459,-13915,-5468.5
12.461,-13917,-5467.3
12.464,-13911,-5473.8
12.462,-13917,-5477.4
12.46,-13918,-5478.4
12.459,-13925,-5473.2
12.461,-13923,-5467.2
12.457,-13918,-5470.3
12.454,-13914,-5471.6
12.457,-13912,-5465.4
12.454,-13910,-5463.8
12.454,-13922,-5469.4
12.452,-13926,-5471.9
12.454,-13923,-5468.3
12.458,-13915,-5473.7
12.453,-13919,-5478
12.45,-13910,-5475.7
12.451,-13928,-5469.8
12.454,-13920,-5464.4
12.454,-13924,-5466.3
12.457,-13920,-5466.4
12.46,-13921,-5472.9
12.452,-13921,-5478.3
12.456,-13919,-5482.6
12.452,-13919,-5481.5
12.455,-13913,-5485.2
12.455,-13924,-5480.6
12.452,-13923,-5475.8
12.454,-13924,-5476.6
12.452,-13929,-5479.4
12.449,-13931,-5483
12.448,-13941,-5487.7
12.445,-13935,-5492.9
12.446,-13931,-5491.5
12.45,-13917,-5484
12.446,-13929,-5480.8
12.445,-13921,-5478.9
12.444,-13915,-5475.6
12.448,-13923,-5469.7
12.443,-13924,-5469
12.444,-13930,-5469.7
12.448,-13924,-5477.6
12.446,-13932,-5481.1
12.445,-13931,-5474.9
12.445,-13939,-5475.6
12.444,-13929,-5483.8
12.443,-13944,-5480.9
12.444,-13927,-5488.1
12.442,-13926,-5486.3
12.444,-13929,-5491.7
12.444,-13935,-5490.9
12.444,-13918,-5492
12.444,-13909,-5486.1
12.443,-13908,-5483.3
12.446,-13904,-5479.1
12.435,-13908,-5474.8
12.439,-13906,-5483.6
12.441,-13906,-5479.5
12.438,-13903,-5472.9
12.439,-13914,-5483.9
12.438,-13913,-5486.3
12.435,-13914,-5479.8
12.437,-13925,-5477.7
12.439,-13932,-5468.6
12.436,-13925,-5464.8
12.437,-13927,-5471.2
12.434,-13912,-5468.1
12.432,-13907,-5469.8
12.436,-13912,-5468.9
12.435,-13916,-5474.1
12.435,-13936,-5486.2
12.438,-13931,-5487.3
12.435,-13935,-5494.7
12.434,-13929,-5493
12.432,-13924,-5492.8
12.429,-13920,-5485.7
12.431,-13913,-5471.2
12.429,-13910,-5471.8
12.432,-13904,-5470.2
12.436,-13905,-5472.5
12.431,-13902,-5475.4
12.429,-13916,-5479.6
12.431,-13921,-5484.2
12.431,-13919,-5487.7
12.432,-13914,-5491.8
12.43,-13909,-5488.1
12.43,-13910,-5485.7
12.426,-13907,-5489.9
12.429,-13897,-5494.6
12.427,-13902,-5498.4
12.426,-13897,-5496.6
12.424,-13893,-5494.2
12.426,-13894,-5501.6
12.425,-13881,-5503.1
12.427,-13869,-5497.4
12.421,-13874,-5497.1
12.423,-13864,-5492.9
12.426,-13871,-5491.6
12.426,-13884,-5490.6
12.422,-13884,-5490
12.422,-13896,-5493
12.419,-13878,-5494.1
12.423,-13846,-5496.1
12.422,-13827,-5494.7
12.422,-13809,-5500.9
12.42,-13794,-5502.5
12.423,-13805,-5497
12.422,-13809,-5495.8
12.422,-13805,-5488.6
12.418,-13826,-5491.4
12.421,-13861,-5493.2
12.418,-13873,-5497.1
12.417,-13873,-5501.1
12.419,-13871,-5500.4
12.416,-13873,-5497.7
12.416,-13863,-5501.3
12.414,-13864,-5494.4
12.417,-13870,-5494.1
12.417,-13869,-5490.5
12.416,-13869,-5490.2
12.417,-13885,-5496.5
12.416,-13879,-5492.7
12.417,-13903,-5490.6
12.416,-13935,-5491.2
12.414,-13948,-5493.9
12.414,-13944,-5491.4
12.41,-13928,-5486.6
12.409,-13936,-5480.6
12.413,-13935,-5476.1
12.411,-13929,-5473.2
12.413,-13936,-5470.8
12.408,-13944,-5476.7
12.411,-13942,-5487.8
12.412,-13935,-5486.3
12.41,-13946,-5491.7
12.409,-13948,-5493.3
12.408,-13946,-5489.5
12.411,-13951,-5487.1
12.41,-13955,-5485.1
12.406,-13943,-5484.5
12.407,-13941,-5476.9
12.41,-13950,-5478.1
12.404,-13953,-5482.2
12.407,-13956,-5483.6
12.406,-13962,-5485.7
12.406,-13961,-5502.6
12.406,-13955,-5499.9
12.404,-13954,-5498.1
12.401,-13956,-5492.8
12.403,-13955,-5491.1
12.404,-13955,-5491.8
12.403,-13959,-5494
12.404,-13951,-5489.3
12.406,-13948,-5486.4
12.398,-13957,-5481.9
12.4,-13948,-5486.8
12.403,-13947,-5488.8
12.403,-13943,-5479.4
12.403,-13943,-5482.3
12.401,-13924,-5480.3
12.4,-13915,-5486.6
12.4,-13923,-5485.3
12.398,-13934,-5489.6
12.396,-13972,-5494.9
12.399,-14021,-5498.5
12.397,-14055,-5498.5
12.396,-14051,-5500.4
12.397,-14041,-5492.6
12.394,-14017,-5490.8
12.397,-13994,-5492.1
12.397,-13939,-5495.3
12.393,-13855,-5493.6
12.395,-13772,-5495.7
12.397,-13617,-5496.5
12.394,-13386,-5498.7
12.397,-13185,-5496.3
12.398,-12966,-5487.6
12.397,-12817,-5472.2
12.391,-12762,-5460.5
12.39,-12704,-5447.4
12.391,-12674,-5416.1
12.39,-12782,-5397.7
12.392,-12967,-5394.8
12.393,-13261,-5404.4
12.392,-13501,-5409.8
12.393,-13750,-5409.2
12.392,-13988,-5422.4
12.391,-14228,-5434.1
12.391,-14360,-5432.1
12.389,-14403,-5437.1
12.388,-14438,-5443.2
12.387,-14418,-5452.9
12.386,-14383,-5466.2
12.389,-14375,-5476.6
12.387,-14327,-5485.2
12.389,-14275,-5489.5
12.386,-14185,-5487.2
12.389,-14100,-5491.6
12.388,-14032,-5487.1
12.386,-13951,-5482.2
12.382,-13896,-5479.9
12.383,-13867,-5474.4
12.384,-13841,-5470
12.385,-13852,-5468.8
12.386,-13854,-5469.5
12.383,-13863,-5475.9
12.386,-13870,-5474.9
12.388,-13876,-5479.3
12.383,-13862,-5473.1
12.379,-13858,-5476.6
12.381,-13849,-5470.9
12.381,-13844,-5478.4
12.381,-13846,-5477.7
12.378,-13843,-5476.9
12.38,-13846,-5479.1
12.379,-13847,-5482.3
12.382,-13845,-5484
12.378,-13838,-5481.6
12.377,-13856,-5481.7
12.374,-13861,-5480
12.376,-13854,-5482.2
12.377,-13823,-5482.2
12.376,-13813,-5481
12.379,-13803,-5480.5
12.376,-13789,-5476.7
12.376,-13796,-5473.1
12.379,-13805,-5470.7
12.377,-13804,-5469.4
12.38,-13809,-5475.9
12.38,-13811,-5483.5
12.378,-13822,-5488.8
12.374,-13828,-5489.8
12.37,-13820,-5487.5
12.371,-13802,-5490.5
12.374,-13801,-5488.7
12.367,-13792,-5494
12.37,-13798,-5496
12.372,-13797,-5493.5
12.37,-13790,-5493.1
12.371,-13790,-5488.2
12.368,-13786,-5487.6
12.368,-13779,-5481.3
12.368,-13777,-5476.6
12.363,-13771,-5479.6
12.367,-13781,-5484.8
12.366,-13775,-5491.3
12.369,-13784,-5491.3
12.369,-13785,-5491.9
12.366,-13782,-5494.9
12.364,-13775,-5493.9
12.363,-13771,-5485.3
12.363,-13767,-5486.5
12.361,-13760,-5484.4
12.364,-13759,-5482.4
12.361,-13753,-5482.4
12.364,-13757,-5487.9
12.365,-13757,-5485.8
12.363,-13766,-5491.1
12.365,-13762,-5494.7
12.365,-13745,-5487.1
12.363,-13752,-5487.4
12.361,-13742,-5483.8
12.36,-13737,-5480
12.357,-13750,-5478.9
12.36,-13733,-5479.8
12.358,-13726,-5486.4
12.358,-13719,-5491.7
12.36,-13719,-5487.5
12.36,-13715,-5491
12.357,-13721,-5490.1
12.356,-13710,-5484.2
12.354,-13697,-5477.8
12.359,-13702,-5479.9
12.356,-13703,-5480.6
12.358,-13706,-5484.1
12.355,-13715,-5482.9
12.358,-13704,-5485.9
12.358,-13703,-5481.9
12.352,-13695,-5485.7
12.351,-13689,-5484.4
12.352,-13673,-5482.4
12.352,-13671,-5484
12.353,-13667,-5482.5
12.352,-13661,-5481.6
12.351,-13652,-5476.2
12.348,-13644,-5476.1
12.35,-13645,-5481.9
12.349,-13654,-5480.9
12.352,-13648,-5477.2
12.353,-13642,-5483.2
12.352,-13629,-5479.9
12.349,-13623,-5480.1
12.35,-13613,-5480.7
12.349,-13609,-5479.9
12.346,-13603,-5479.9
12.346,-13592,-5481.3
12.348,-13592,-5482.2
12.348,-13591,-5484.4
12.347,-13585,-5491.3
12.348,-13583,-5491.7
12.347,-13584,-5485.4
12.346,-13571,-5484.2
12.349,-13554,-5476.9
12.343,-13525,-5474.9
12.346,-13523,-5474
12.345,-13509,-5471.5
12.345,-13509,-5469.1
12.343,-13500,-5476.6
12.34,-13503,-5477.4
12.338,-13496,-5481.7
12.342,-13487,-5482.9
12.343,-13486,-5484.3
12.34,-13474,-5472.5
12.337,-13457,-5475.9
12.338,-13443,-5476.9
12.339,-13440,-5476.2
12.336,-13448,-5480.6
12.338,-13435,-5484.6
12.336,-13438,-5484.4
12.337,-13431,-5488.4
12.336,-13422,-5485.1
12.335,-13418,-5475.2
12.338,-13424,-5475.7
12.334,-13418,-5478.7
12.334,-13400,-5481.6
12.336,-13405,-5477.7
12.333,-13403,-5477.4
12.333,-13394,-5480.8
12.335,-13402,-5484.9
12.337,-13409,-5486
12.335,-13415,-5481.7
12.335,-13416,-5476.8
12.334,-13407,-5470.3
12.33,-13427,-5464.7
12.332,-13430,-5459.3
12.329,-13425,-5462.9
12.331,-13408,-5465.5
12.328,-13428,-5479.1
12.331,-13437,-5490.7
12.333,-13454,-5492.5
12.328,-13473,-5489.8
12.326,-13494,-5489.3
12.327,-13514,-5485.4
12.328,-13527,-5479.5
12.328,-13547,-5479.7
12.324,-13557,-5479
12.321,-13563,-5477.5
12.324,-13569,-5482.9
12.323,-13600,-5484.2
12.32,-13611,-5485.2
12.322,-13626,-5487.9
12.323,-13635,-5484.2
12.326,-13648,-5482.9
12.324,-13669,-5485.5
12.322,-13671,-5481.3
12.32,-13681,-5477.8
12.322,-13695,-5479.7
12.319,-13721,-5483.9
12.317,-13735,-5486.5
12.32,-13731,-5489.4
12.32,-13732,-5489.7
12.32,-13739,-5492.5
12.32,-13741,-5488.4
12.322,-13742,-5483.1
12.321,-13755,-5479.7
12.319,-13760,-5480.1
12.315,-13769,-5482
12.317,-13768,-5488.3
12.314,-13782,-5492.2
12.315,-13785,-5494.3
12.315,-13780,-5496
12.312,-13786,-5490
12.319,-13782,-5481.5
12.315,-13780,-5483.2
12.315,-13776,-5477.2
12.314,-13777,-5465.6
12.31,-13776,-5468.4
12.312,-13782,-5478.7
12.312,-13786,-5481.5
12.31,-13800,-5487.3
12.31,-13808,-5486.8
12.31,-13798,-5491
12.311,-13792,-5491.6
12.31,-13788,-5491.3
12.311,-13791,-5486
12.309,-13797,-5484.6
12.309,-13795,-5481.3
12.31,-13780,-5480.9
12.309,-13788,-5482.2
12.307,-13799,-5484.7
12.305,-13792,-5487
12.302,-13795,-5481.8
12.303,-13785,-5485.5
12.303,-13797,-5479.2
12.304,-13792,-5483.6
12.306,-13786,-5487.6
12.305,-13779,-5482.7
12.306,-13787,-5484.2
12.301,-13786,-5490.9
12.304,-13770,-5489
12.303,-13783,-5495.1
12.303,-13794,-5492.3
12.304,-13787,-5486.6
12.302,-13780,-5489.7
12.297,-13791,-5483.6
12.3,-13788,-5483.4
12.298,-13780,-5484
12.301,-13783,-5484.8
12.298,-13789,-5485.7
12.299,-13800,-5487
12.297,-13801,-5485.9
12.296,-13790,-5486.7
12.296,-13783,-5484.8
12.297,-13785,-5487.7
12.295,-13782,-5477.9
12.293,-13783,-5472.2
12.294,-13789,-5474.4
12.296,-13794,-5473.1
12.297,-13783,-5481
12.294,-13795,-5483.8
12.292,-13798,-5481.6
12.294,-13795,-5481.7
12.296,-13796,-5483.6
12.294,-13804,-5483.4
12.291,-13801,-5484.3
12.289,-13797,-5488.4
12.289,-13795,-5489.1
12.289,-13806,-5484.9
12.288,-13809,-5492.6
12.29,-13801,-5488.8
12.289,-13797,-5488.1
12.287,-13796,-5491.2
12.289,-13796,-5490.8
12.29,-13802,-5491.5
12.288,-13815,-5482.8
12.286,-13810,-5486.5
12.29,-13813,-5479.6
12.286,-13828,-5478.8
12.283,-13837,-5485.6
12.283,-13828,-5488.3
12.285,-13819,-5487.2
12.284,-13824,-5483.9
12.286,-13825,-5490.8
12.284,-13825,-5486.9
12.281,-13827,-5486.2
12.282,-13821,-5487.7
12.282,-13816,-5489.2
12.279,-13826,-5489.8
12.281,-13817,-5482.9
12.283,-13819,-5483
12.278,-13828,-5480.4
12.281,-13829,-5480.5
12.28,-13841,-5482.9
12.28,-13845,-5493
12.278,-13848,-5489.2
12.278,-13861,-5489.9
12.278,-13836,-5485.6
12.273,-13833,-5485.5
12.275,-13831,-5494.1
12.274,-13828,-5492
12.273,-13832,-5497.3
12.278,-13836,-5498.6
12.275,-13849,-5500.4
12.272,-13850,-5500.9
12.271,-13848,-5501.4
12.277,-13854,-5488.3
12.275,-13854,-5485.3
12.269,-13846,-5483.2
12.271,-13822,-5484.5
12.269,-13833,-5485.1
12.271,-13834,-5478.6
12.273,-13833,-5483.4
12.269,-13839,-5485.7
12.27,-13848,-5496.1
12.271,-13852,-5494.9
12.265,-13843,-5491.9
12.271,-13852,-5495.7
12.268,-13857,-5490.2
12.267,-13857,-5491.1
12.266,-13852,-5483.4
12.268,-13846,-5492.2
12.265,-13851,-5485.4
12.264,-13856,-5490.2
12.265,-13856,-5492.6
12.262,-13858,-5491.8
12.266,-13861,-5493
12.262,-13856,-5490.6
12.262,-13844,-5489.4
12.259,-13853,-5486.7
12.261,-13855,-5487.2
12.263,-13858,-5488
12.258,-13868,-5491.4
12.26,-13878,-5490.1
12.262,-13869,-5492.6
12.261,-13862,-5484.8
12.261,-13858,-5485.9
12.257,-13855,-5487.2
12.257,-13850,-5492.5
12.258,-13849,-5490.7
12.261,-13857,-5490.6
12.257,-13853,-5493.5
12.256,-13855,-5502
12.256,-13858,-5496.7
12.253,-13866,-5493.8
12.257,-13869,-5492.5
12.257,-13868,-5486.6
12.259,-13854,-5484.4
12.255,-13851,-5477.7
12.252,-13856,-5484
12.254,-13851,-5478.5
12.258,-13853,-5487.2
12.255,-13862,-5492.1
12.253,-13876,-5489.9
12.254,-13878,-5493.4
12.256,-13868,-5497.3
12.252,-13849,-5493.6
12.251,-13846,-5492.1
12.247,-13848,-5486.4
12.251,-13837,-5481.6
12.249,-13854,-5473.9
12.249,-13861,-5477.6
12.251,-13865,-5483.5
12.248,-13867,-5482
12.247,-13864,-5483.1
12.245,-13859,-5489.1
12.249,-13861,-5491.1
12.249,-13853,-5489.6
12.243,-13864,-5489
12.244,-13865,-5487.4
12.244,-13858,-5482.7
12.243,-13861,-5474.3
12.247,-13844,-5476.8
12.245,-13856,-5481
12.245,-13860,-5487.1
12.245,-13866,-5486.2
12.242,-13865,-5477.1
12.244,-13863,-5475
12.242,-13853,-5470.2
12.24,-13844,-5468.4
12.245,-13843,-5468.7
12.239,-13851,-5476.8
12.242,-13867,-5483.8
12.242,-13866,-5485
12.238,-13870,-5483.1
12.24,-13854,-5488.7
12.24,-13859,-5491.3
12.234,-13859,-5482.7
12.24,-13847,-5487
12.238,-13846,-5485.8
12.235,-13852,-5484.7
12.238,-13848,-5474.9
12.238,-13858,-5477.6
12.239,-13854,-5482.3
12.231,-13859,-5480.2
12.235,-13857,-5479.8
12.234,-13859,-5493.2
12.232,-13849,-5486.9
12.235,-13847,-5485.8
12.235,-13854,-5484.4
12.228,-13847,-5487
12.232,-13843,-5480
12.231,-13847,-5478.4
12.23,-13847,-5477
12.234,-13846,-5479.1
12.228,-13867,-5477.7
12.225,-13870,-5477.9
12.229,-13858,-5480.5
12.231,-13854,-5481
12.233,-13847,-5478.9
12.229,-13837,-5475.1
12.227,-13857,-5477.2
12.225,-13854,-5483
12.231,-13853,-5484.3
12.228,-13857,-5489.5
12.228,-13856,-5485.7
12.225,-13846,-5488.2
12.228,-13850,-5492.9
12.227,-13866,-5484.9
12.224,-13861,-5479.7
12.224,-13859,-5472.1
12.219,-13861,-5474.3
12.223,-13862,-5478.6
12.221,-13848,-5479.8
12.223,-13852,-5474.6
12.223,-13854,-5482.2
12.222,-13847,-5486
12.222,-13845,-5481.9
12.225,-13856,-5486.6
12.223,-13850,-5481.6
12.225,-13850,-5477.5
12.218,-13857,-5476.8
12.22,-13839,-5475.6
12.221,-13843,-5472.4
12.219,-13863,-5477.7
12.22,-13869,-5479.7
12.218,-13860,-5478.5
12.221,-13859,-5485.1
12.217,-13849,-5477.5
12.218,-13843,-5478.9
12.218,-13841,-5476.1
12.213,-13848,-5484.2
12.214,-13846,-5481.6
12.219,-13850,-5479
12.212,-13852,-5479.1
12.215,-13853,-5487.4
12.214,-13855,-5487.5
12.215,-13856,-5491.7
12.213,-13854,-5487.6
12.212,-13845,-5496
12.211,-13846,-5485.6
12.215,-13828,-5484.1
12.215,-13846,-5479.3
12.213,-13842,-5481.9
12.212,-13850,-5480.8
12.212,-13870,-5485.5
12.214,-13873,-5489.9
12.209,-13870,-5495.6
12.211,-13866,-5489.3
12.21,-13868,-5493.6
12.208,-13855,-5488
12.206,-13863,-5487.6
12.21,-13852,-5483.9
12.209,-13849,-5486.4
12.206,-13849,-5487.9
12.208,-13847,-5489.9
12.2,-13863,-5486.1
12.205,-13864,-5488.4
12.205,-13865,-5486.1
12.207,-13861,-5480
12.205,-13849,-5481
12.202,-13846,-5482.4
12.204,-13840,-5482.2
12.208,-13849,-5490.7
12.204,-13842,-5485.5
12.203,-13844,-5484.6
12.204,-13854,-5482.4
12.203,-13862,-5484.4
12.202,-13859,-5489
12.203,-13869,-5486.4
12.202,-13871,-5485.9
12.205,-13863,-5484.2
12.198,-13845,-5481.4
12.2,-13849,-5480.5
12.194,-13850,-5484.4
12.198,-13861,-5484.7
12.198,-13859,-5486.7
12.2,-13853,-5490.6
12.196,-13844,-5489
12.201,-13853,-5487.9
12.2,-13848,-5483.9
12.195,-13847,-5481.8
12.196,-13837,-5482.4
12.198,-13839,-5479.1
12.194,-13842,-5476.3
12.195,-13846,-5479.5
12.195,-13851,-5483.2
12.193,-13860,-5483.7
12.198,-13847,-5484.9
12.198,-13852,-5485.1
12.196,-13852,-5487.3
12.197,-13851,-5490
12.193,-13849,-5485.1
12.191,-13851,-5480.4
12.192,-13851,-5485.1
12.191,-13848,-5491.3
12.19,-13853,-5492.1
12.192,-13859,-5492.7
12.19,-13854,-5492.5
12.193,-13848,-5490.4
12.194,-13844,-5481.1
12.188,-13854,-5482.8
12.192,-13846,-5484.5
12.189,-13857,-5488.6
12.189,-13861,-5487.8
12.189,-13873,-5484
12.187,-13873,-5485.7
12.187,-13852,-5487.6
12.191,-13845,-5480.4
12.187,-13837,-5483.3
12.187,-13834,-5486.8
12.187,-13840,-5494.6
12.186,-13845,-5493.1
12.191,-13831,-5490.2
12.185,-13833,-5491.9
12.181,-13830,-5492
12.186,-13840,-5485.1
12.189,-13845,-5483.7
12.182,-13851,-5483.8
12.182,-13847,-5489.8
12.187,-13843,-5489.9
12.182,-13842,-5484.4
12.185,-13841,-5483.6
12.184,-13838,-5485
12.181,-13839,-5485.6
12.181,-13837,-5482.1
12.183,-13831,-5487
12.182,-13846,-5490.6
12.181,-13856,-5487.4
12.184,-13871,-5494.3
12.181,-13879,-5490.6
12.185,-13852,-5484.3
12.181,-13822,-5486.6
12.184,-13825,-5480.5
12.178,-13820,-5482.8
12.176,-13817,-5479.1
12.181,-13817,-5483.3
12.178,-13828,-5475.4
12.179,-13830,-5481.6
12.178,-13829,-5483.4
12.18,-13830,-5489.4
12.178,-13842,-5486.1
12.174,-13835,-5486.4
12.176,-13822,-5491.8
12.18,-13824,-5492.1
12.176,-13831,-5492.9
12.174,-13831,-5494.7
12.176,-13825,-5493
12.178,-13813,-5507.9
12.176,-13821,-5512.4
12.174,-13831,-5504.2
12.172,-13831,-5501.8
12.176,-13813,-5488.9
12.175,-13789,-5484.3
12.174,-13776,-5481.2
12.171,-13799,-5477.6
12.169,-13822,-5485.7
12.17,-13814,-5491.7
12.174,-13808,-5501.4
12.175,-13806,-5507.5
12.173,-13766,-5506.6
12.172,-13745,-5506.1
12.172,-13724,-5504.6
12.171,-13717,-5498.8
12.174,-13716,-5503
12.167,-13724,-5491.5
12.164,-13715,-5487.3
12.167,-13731,-5493.1
12.167,-13748,-5495.9
12.167,-13764,-5496
12.171,-13780,-5490.5
12.169,-13772,-5491.6
12.169,-13786,-5494.7
12.167,-13779,-5486.2
12.166,-13785,-5492.4
12.164,-13788,-5493.7
12.164,-13799,-5488.9
12.165,-13788,-5490.9
12.167,-13791,-5494
12.165,-13808,-5493.1
12.165,-13818,-5499
12.162,-13833,-5488
12.163,-13864,-5489.4
12.166,-13870,-5485.4
12.164,-13850,-5480.9
12.164,-13848,-5475.3
12.162,-13862,-5481.5
12.163,-13852,-5488.5
12.161,-13869,-5486.1
12.163,-13887,-5486.3
12.158,-13895,-5487.7
12.16,-13875,-5491.7
12.161,-13863,-5490.5
12.161,-13874,-5485.7
12.161,-13866,-5486.1
12.159,-13864,-5483.4
12.156,-13867,-5481.9
12.157,-13862,-5490.2
12.156,-13861,-5485.9
12.159,-13875,-5487.4
12.156,-13881,-5491.4
12.159,-13868,-5491.2
12.154,-13894,-5483.8
12.155,-13895,-5482.2
12.156,-13881,-5480.8
12.159,-13867,-5485.5
12.158,-13870,-5482.8
12.156,-13860,-5483.1
12.153,-13860,-5485.5
12.159,-13880,-5484.8
12.157,-13872,-5484.9
12.158,-13868,-5482.9
12.156,-13862,-5471.5
12.156,-13865,-5464
12.155,-13864,-5469.3
12.153,-13845,-5471.7
12.152,-13841,-5476.9
12.15,-13850,-5477.4
12.152,-13838,-5478
12.151,-13845,-5478.2
12.149,-13858,-5483.7
12.151,-13885,-5487.9
12.154,-13923,-5494.7
12.148,-13960,-5499.1
12.146,-13965,-5490.8
12.15,-13963,-5489.3
12.152,-13963,-5491.9
12.149,-13948,-5496.9
12.15,-13891,-5495.9
12.151,-13811,-5499.6
12.148,-13713,-5505.3
12.149,-13549,-5500
12.146,-13331,-5496.7
12.147,-13116,-5491.6
12.145,-12901,-5482.9
12.148,-12758,-5470.4
12.147,-12695,-5455.5
12.145,-12645,-5444.1
12.146,-12639,-5424.5
12.146,-12760,-5411.5
12.148,-12965,-5400.6
12.143,-13235,-5411.4
12.146,-13488,-5420.5
12.146,-13723,-5415.3
12.144,-13937,-5425.5
12.142,-14164,-5431.3
12.139,-14252,-5435.9
12.142,-14303,-5433.2
12.146,-14304,-5444.3
12.142,-14282,-5457.3
12.142,-14290,-5466.3
12.143,-14287,-5473
12.142,-14235,-5479.2
12.142,-14171,-5472.5
12.139,-14078,-5469
12.141,-13995,-5470.6
12.139,-13899,-5470.6
12.143,-13842,-5465.9
12.137,-13794,-5467.7
12.136,-13768,-5464.3
12.14,-13783,-5465.6
12.14,-13811,-5468.4
12.138,-13810,-5479.8
12.138,-13801,-5475.9
12.137,-13791,-5468.9
12.137,-13788,-5469.9
12.136,-13779,-5468.8
12.135,-13777,-5468.6
12.134,-13778,-5469.9
12.137,-13782,-5470.7
12.137,-13777,-5466.5
12.136,-13779,-5463.8
12.135,-13771,-5469.6
12.136,-13767,-5471.7
12.137,-13761,-5478.6
12.133,-13753,-5472.4
12.131,-13753,-5471.3
12.131,-13750,-5471
12.133,-13752,-5472.2
12.133,-13755,-5469.9
12.132,-13752,-5466.4
12.134,-13755,-5474.5
12.135,-13748,-5471.2
12.134,-13757,-5474.2
12.133,-13762,-5475.3
12.13,-13754,-5475.6
12.13,-13734,-5469.9
12.13,-13722,-5462.7
12.13,-13725,-5465.5
12.13,-13722,-5469
12.131,-13722,-5472.8
12.13,-13721,-5481.4
12.128,-13719,-5484.7
12.128,-13717,-5487.1
12.13,-13717,-5488
12.131,-13719,-5489.1
12.126,-13716,-5481.8
12.124,-13706,-5481.1
12.128,-13710,-5481.1
12.126,-13707,-5480.3
12.125,-13702,-5473.8
12.123,-13705,-5465.1
12.125,-13715,-5475.7
12.127,-13715,-5477.3
12.129,-13704,-5477.8
12.125,-13706,-5476.2
12.124,-13697,-5480.7
12.121,-13696,-5478.2
12.119,-13697,-5473.6
12.123,-13692,-5473.5
12.126,-13690,-5479.6
12.124,-13692,-5481.8
12.121,-13688,-5476.2
12.123,-13704,-5480.7
12.124,-13712,-5481.4
12.125,-13695,-5478.4
12.123,-13674,-5482.9
12.123,-13670,-5480.8
12.12,-13674,-5472.4
12.122,-13668,-5468
12.121,-13666,-5471.9
12.119,-13675,-5469.3
12.119,-13674,-5465
12.117,-13675,-5469.1
12.119,-13663,-5472.6
12.119,-13653,-5480.9
12.118,-13652,-5479.7
12.121,-13641,-5471.9
12.117,-13636,-5472.2
12.117,-13636,-5468.5
12.115,-13629,-5466.5
12.115,-13624,-5468.6
12.114,-13632,-5472.8
12.118,-13629,-5478.7
12.117,-13625,-5477.8
12.115,-13621,-5476.5
12.115,-13618,-5472.5
12.116,-13609,-5464.7
12.113,-13616,-5466.1
12.113,-13606,-5468.6
12.113,-13594,-5463.8
12.112,-13581,-5461.5
12.111,-13586,-5463
12.114,-13592,-5465.7
12.113,-13586,-5473.9
12.113,-13580,-5474.6
12.113,-13578,-5474.7
12.111,-13585,-5473.1
12.114,-13568,-5464.1
12.113,-13558,-5462.5
12.115,-13547,-5462.2
12.11,-13538,-5464.5
12.109,-13534,-5465.2
12.111,-13523,-5467.2
12.111,-13519,-5475.1
12.108,-13521,-5475
12.109,-13516,-5472.2
12.11,-13513,-5475.3
12.109,-13491,-5472.7
12.108,-13489,-5468.1
12.108,-13492,-5469.8
12.107,-13475,-5466.9
12.105,-13470,-5462
12.108,-13465,-5466
12.108,-13469,-5462.4
12.105,-13472,-5466.9
12.104,-13466,-5463.6
12.105,-13453,-5459.8
12.106,-13438,-5462.2
12.105,-13413,-5468.8
12.104,-13397,-5470.7
12.105,-13398,-5462.1
12.102,-13396,-5459.4
12.102,-13382,-5468.5
12.104,-13381,-5473.2
12.104,-13380,-5477.8
12.105,-13381,-5477.2
12.104,-13374,-5467.8
12.102,-13370,-5462.6
12.1,-13367,-5464.5
12.1,-13363,-5468.9
12.102,-13354,-5463.6
12.103,-13343,-5466.2
12.101,-13340,-5466.3
12.098,-13342,-5463.2
12.1,-13338,-5469.7
12.102,-13340,-5473.6
12.101,-13346,-5470.1
12.102,-13350,-5466.6
12.1,-13340,-5465.5
12.097,-13327,-5464.9
12.097,-13337,-5463.7
12.097,-13340,-5464.4
12.096,-13339,-5467
12.095,-13360,-5468.6
12.095,-13373,-5470.3
12.095,-13382,-5463.2
12.098,-13399,-5457.4
12.099,-13409,-5460.7
12.098,-13420,-5466.8
12.097,-13424,-5462.3
12.095,-13441,-5458.6
12.095,-13460,-5467.2
12.096,-13471,-5468.7
12.094,-13493,-5477.3
12.095,-13509,-5476.5
12.096,-13521,-5474.1
12.094,-13539,-5478.8
12.092,-13554,-5476.5
12.091,-13567,-5472
12.091,-13578,-5475.7
12.09,-13587,-5473.7
12.091,-13598,-5472.9
12.092,-13614,-5471.6
12.091,-13633,-5469.2
12.089,-13663,-5477.1
12.088,-13669,-5480.4
12.089,-13662,-5482.9
12.09,-13660,-5480.1
12.089,-13663,-5478.6
12.088,-13673,-5480.4
12.088,-13685,-5474.8
12.09,-13697,-5472.3
12.089,-13701,-5470.9
12.087,-13708,-5477.4
12.086,-13715,-5472.7
12.086,-13715,-5469.8
12.085,-13712,-5479.4
12.085,-13708,-5479.2
12.085,-13710,-5475.6
12.085,-13705,-5471.3
12.086,-13726,-5474
12.084,-13743,-5471.9
12.08,-13722,-5467.4
12.084,-13726,-5475.7
12.085,-13740,-5472.5
12.083,-13735,-5477.3
12.084,-13733,-5481.1
12.082,-13727,-5475.1
12.079,-13735,-5475
12.081,-13739,-5470.7
12.084,-13737,-5469.4
12.082,-13736,-5472.4
12.081,-13733,-5479.4
12.08,-13732,-5486
12.08,-13734,-5485.4
12.079,-13746,-5481.8
12.079,-13741,-5478.1
12.081,-13731,-5478.5
12.079,-13736,-5480.5
12.082,-13737,-5479.9
12.083,-13730,-5479.4
12.077,-13727,-5480.7
12.079,-13734,-5480.6
12.081,-13730,-5478.4
12.081,-13731,-5480.1
12.08,-13745,-5474.7
12.077,-13742,-5474.2
12.077,-13742,-5476.6
12.077,-13744,-5477.9
12.075,-13736,-5480
12.074,-13734,-5480
12.073,-13729,-5478.5
12.072,-13729,-5478.4
12.073,-13732,-5479.1
12.074,-13731,-5484.9
12.073,-13735,-5487.1
12.072,-13733,-5481.8
12.072,-13736,-5477.6
12.076,-13735,-5477.4
12.074,-13733,-5473.5
12.073,-13730,-5475.1
12.071,-13740,-5473.8
12.07,-13751,-5471.8
12.073,-13750,-5470.8
12.074,-13742,-5472
12.071,-13747,-5477.4
12.07,-13756,-5477
12.069,-13738,-5480.5
12.071,-13737,-5483.1
12.072,-13756,-5484.5
12.07,-13760,-5484.2
12.068,-13744,-5476.7
12.068,-13736,-5475.9
12.069,-13744,-5475.3
12.069,-13747,-5469.7
12.068,-13749,-5474
12.068,-13755,-5478.2
12.07,-13763,-5478.6
12.07,-13771,-5478.7
12.067,-13767,-5480.3
12.065,-13760,-5478.1
12.064,-13765,-5482.3
12.063,-13767,-5483.5
12.065,-13772,-5483.8
12.065,-13779,-5489.7
12.063,-13770,-5488.5
12.064,-13775,-5486.4
12.067,-13774,-5477.8
12.066,-13761,-5481.8
12.061,-13765,-5484
12.058,-13765,-5476.2
12.062,-13765,-5478.4
12.063,-13767,-5483.8
12.062,-13765,-5478.6
12.064,-13775,-5477.1
12.064,-13781,-5480.5
12.064,-13777,-5481.5
12.065,-13783,-5482.3
12.064,-13778,-5482.3
12.062,-13770,-5480.4
12.06,-13781,-5476.8
12.06,-13780,-5473.6
12.059,-13777,-5469.1
12.06,-13785,-5467.6
12.062,-13783,-5469.1
12.061,-13781,-5470
12.058,-13787,-5476.2
12.058,-13798,-5481.1
12.057,-13797,-5485.8
12.057,-13793,-5489.8
12.06,-13794,-5494.9
12.061,-13788,-5494.9
12.058,-13793,-5488.7
12.055,-13792,-5488.8
12.054,-13785,-5489.4
12.054,-13787,-5488.6
12.055,-13797,-5489.4
12.056,-13796,-5488.6
12.057,-13797,-5491
12.056,-13801,-5486.4
12.054,-13810,-5485.6
12.054,-13809,-5482.7
12.056,-13799,-5479.4
12.056,-13795,-5477.8
12.053,-13797,-5481.2
12.053,-13818,-5481.8
12.053,-13818,-5484.8
12.053,-13810,-5485.6
12.052,-13794,-5478.9
12.052,-13800,-5483
12.053,-13802,-5484.6
12.055,-13788,-5478.4
12.053,-13785,-5473.3
12.052,-13803,-5475.7
12.055,-13820,-5482.1
12.052,-13824,-5484.5
12.05,-13808,-5484.4
12.052,-13802,-5484.6
12.05,-13798,-5487
12.049,-13787,-5486.1
12.052,-13796,-5483.1
12.05,-13807,-5486.4
12.049,-13803,-5482.3
12.048,-13796,-5474.6
12.048,-13796,-5476.5
12.047,-13800,-5479.5
12.044,-13802,-5476
12.045,-13807,-5474
12.047,-13801,-5487.3
12.047,-13802,-5495.9
12.046,-13806,-5485.8
12.043,-13802,-5478.1
12.042,-13802,-5475.7
12.044,-13801,-5475.4
12.046,-13800,-5480.5
12.045,-13817,-5478.9
12.042,-13836,-5486.4
12.041,-13824,-5494.3
12.041,-13802,-5491.6
12.042,-13799,-5488.2
12.045,-13803,-5484.6
12.045,-13802,-5484.5
12.044,-13804,-5484.9
12.04,-13805,-5482.7
12.04,-13799,-5483.3
12.043,-13806,-5482.3
12.044,-13807,-5482.2
12.041,-13808,-5483.3
12.04,-13811,-5484
12.041,-13811,-5488.1
12.039,-13807,-5491.6
12.038,-13808,-5486.8
12.038,-13805,-5486.7
12.037,-13798,-5483.3
12.039,-13801,-5475.5
12.037,-13804,-5478.2
12.033,-13803,-5477.5
12.035,-13804,-5478.9
12.038,-13804,-5481.5
12.037,-13807,-5490.9
12.037,-13809,-5490.4
12.038,-13805,-5486.9
12.038,-13807,-5487.2
12.037,-13803,-5482.3
12.033,-13796,-5485.2
12.031,-13793,-5481
12.032,-13801,-5483.7
12.034,-13803,-5479.4
12.037,-13802,-5477.7
12.036,-13805,-5481.6
12.034,-13808,-5484.4
12.033,-13802,-5479.8
12.034,-13810,-5482.1
12.032,-13809,-5483.7
12.031,-13806,-5482.9
12.03,-13803,-5478.3
12.031,-13819,-5480.1
12.031,-13817,-5484.9
12.033,-13812,-5488.6
12.032,-13811,-5492.3
12.029,-13804,-5490.2
12.03,-13804,-5493
12.033,-13798,-5488.5
12.031,-13794,-5488.3
12.028,-13795,-5489.2
12.027,-13808,-5485.1
12.029,-13832,-5485.8
12.028,-13839,-5481.3
12.027,-13826,-5479.6
12.027,-13808,-5480.8
12.028,-13806,-5488.2
12.027,-13805,-5487.5
12.026,-13797,-5484.9
12.026,-13794,-5479.7
12.027,-13799,-5472.4
12.026,-13803,-5473.1
12.026,-13801,-5478
12.021,-13809,-5484.1
12.021,-13807,-5486
12.026,-13808,-5487.9
12.027,-13813,-5483.4
12.025,-13821,-5478.9
12.022,-13829,-5482.8
12.021,-13816,-5481.8
12.023,-13802,-5476.7
12.023,-13805,-5477.9
12.025,-13802,-5483.4
12.025,-13795,-5485.1
12.023,-13793,-5484.4
12.023,-13794,-5484.3
12.025,-13797,-5485
12.024,-13801,-5481.8
12.023,-13801,-5482.4
12.021,-13804,-5478
12.022,-13793,-5475
12.022,-13791,-5479.5
12.02,-13797,-5478.8
12.021,-13796,-5482
12.02,-13798,-5482.1
12.019,-13805,-5481.9
12.02,-13813,-5486.6
12.019,-13808,-5488.3
12.02,-13804,-5484
12.02,-13807,-5483.8
12.02,-13805,-5482.4
12.019,-13806,-5475.8
12.017,-13808,-5473.9
12.018,-13798,-5475.8
12.018,-13796,-5480.9
12.017,-13802,-5488.2
12.014,-13805,-5489
12.016,-13807,-5492.2
12.017,-13811,-5490.4
12.017,-13813,-5488.6
12.017,-13810,-5485.5
12.018,-13808,-5479.6
12.019,-13806,-5482.7
12.018,-13802,-5483.6
12.016,-13801,-5485.8
12.015,-13805,-5487.7
12.015,-13805,-5489.4
12.014,-13798,-5481.6
12.015,-13800,-5482.5
12.014,-13815,-5480.4
12.012,-13817,-5480.8
12.012,-13804,-5481.5
12.013,-13791,-5480.8
12.011,-13793,-5481.7
12.011,-13790,-5481.5
12.013,-13792,-5484.3
12.014,-13796,-5481.9
12.015,-13794,-5479.9
12.013,-13797,-5483.1
12.013,-13804,-5491.3
12.012,-13802,-5488.6
12.011,-13796,-5481.4
12.011,-13798,-5477.4
12.012,-13792,-5477.5
12.009,-13794,-5478.9
12.012,-13796,-5481.4
12.01,-13800,-5488.1
12.01,-13795,-5491.3
12.01,-13789,-5489.6
12.01,-13789,-5487.2
12.009,-13788,-5486
12.008,-13785,-5480.5
12.01,-13780,-5475.4
12.009,-13787,-5471.6
12.006,-13792,-5474.6
12.006,-13792,-5481.9
12.006,-13793,-5480.4
12.006,-13794,-5479.9
12.007,-13799,-5486.8
12.006,-13803,-5485.8
12.006,-13797,-5483.4
12.007,-13799,-5480.4
12.006,-13798,-5480.3
12.005,-13793,-5477.4
12.005,-13788,-5479.9
12.004,-13795,-5482.2
12.003,-13797,-5486.4
12.004,-13796,-5490.4
12.004,-13802,-5492.8
12.005,-13794,-5493.5
12.004,-13795,-5490.5
12.002,-13799,-5484.4
12.003,-13799,-5488.2
12.002,-13795,-5487.9
12.001,-13801,-5484.1
12.001,-13798,-5486.2
11.999,-13801,-5489.1
12,-13802,-5486.5
12.003,-13792,-5485.7
12.002,-13795,-5484.3
12.002,-13785,-5484
12.001,-13780,-5478.5
12,-13777,-5472
11.999,-13780,-5478.6
12,-13781,-5477.6
12.002,-13781,-5480.6
12.002,-13791,-5486.8
12.002,-13788,-5488.9
12.003,-13789,-5489.3
12.002,-13790,-5489.3
12.001,-13789,-5486.2
11.996,-13793,-5480.2
11.996,-13784,-5479.8
12.001,-13787,-5481
12.001,-13787,-5482.4
11.997,-13784,-5482.1
11.996,-13784,-5481.3
11.995,-13791,-5477.4
11.995,-13795,-5477.6
11.998,-13789,-5477
12,-13785,-5477.5
11.999,-13780,-5473.9
11.998,-13777,-5471.8
11.997,-13773,-5474.2
11.995,-13768,-5484.2
11.993,-13760,-5494.1
11.996,-13759,-5491.3
11.994,-13766,-5490.7
11.995,-13781,-5487.4
11.993,-13785,-5483.3
11.993,-13783,-5484.9
11.995,-13768,-5488.2
11.993,-13763,-5491.5
11.992,-13762,-5494.1
11.992,-13740,-5498.7
11.992,-13728,-5503.3
11.991,-13732,-5505.4
11.991,-13743,-5500.9
11.99,-13755,-5498.6
11.99,-13769,-5502.7
11.992,-13765,-5504.1
11.992,-13754,-5497.3
11.993,-13730,-5493.3
11.991,-13701,-5490
11.99,-13677,-5485.7
11.992,-13676,-5483.7
11.992,-13658,-5485.2
11.992,-13667,-5489.6
11.99,-13682,-5485.4
11.991,-13683,-5485.1
11.99,-13701,-5488.5
11.99,-13715,-5491.1
11.989,-13722,-5483.3
11.988,-13728,-5487.4
11.987,-13731,-5488.9
11.986,-13725,-5490.8
11.986,-13727,-5489.8
11.986,-13730,-5482.6
11.987,-13734,-5490.9
11.989,-13740,-5493
11.988,-13745,-5486.6
11.987,-13750,-5484
11.989,-13769,-5480.3
11.989,-13788,-5483.5
11.986,-13799,-5484.9
11.987,-13807,-5486.1
11.987,-13807,-5484.3
11.985,-13806,-5480
11.984,-13819,-5484.1
11.986,-13827,-5487.4
11.983,-13823,-5492.6
11.982,-13820,-5491.6
11.983,-13820,-5488.5
11.983,-13822,-5484.1
11.982,-13819,-5481.8
11.981,-13820,-5481
11.982,-13822,-5478.9
11.983,-13824,-5476.4
11.984,-13830,-5478.7
11.983,-13830,-5479.2
11.982,-13833,-5480.4
11.982,-13834,-5488.6
11.983,-13834,-5487
11.983,-13840,-5481.8
11.983,-13843,-5482.7
11.981,-13837,-5487.3
11.981,-13835,-5489.2
11.981,-13840,-5491.6
11.979,-13834,-5487.8
11.978,-13837,-5487.8
11.976,-13831,-5487.6
11.979,-13829,-5497.8
11.98,-13830,-5506.1
11.98,-13827,-5516.5
11.981,-13822,-5516.2
11.98,-13821,-5511.3
11.981,-13829,-5515.7
11.979,-13825,-5520.5
11.979,-13822,-5498.9
11.979,-13828,-5491.3
11.978,-13827,-5500.5
11.977,-13825,-5483.5
11.979,-13832,-5470.3
11.98,-13873,-5466.9
11.977,-13941,-5463.7
11.977,-13994,-5466.9
11.978,-13971,-5465.3
11.975,-13914,-5460
11.974,-13905,-5456.9
11.974,-13888,-5466.1
11.973,-13821,-5476.5
11.974,-13751,-5477.7
11.975,-13658,-5482.1
11.976,-13489,-5480
11.976,-13268,-5470.7
11.974,-13065,-5467.8
11.971,-12856,-5458.1
11.972,-12721,-5450.5
11.974,-12665,-5446.6
11.971,-12589,-5428.3
11.97,-12568,-5410.1
11.97,-12714,-5396.6
11.974,-12960,-5386.6
11.974,-13229,-5391.1
11.971,-13484,-5394.1
11.973,-13721,-5401
11.972,-13938,-5408.2
11.972,-14143,-5412.7
11.974,-14226,-5417.6
11.97,-14272,-5427.1
11.97,-14282,-5443.7
11.97,-14251,-5455.4
11.967,-14245,-5467.9
11.969,-14235,-5472.6
11.97,-14192,-5474.7
11.968,-14126,-5475.3
11.968,-14036,-5469.6
11.967,-13965,-5468.3
11.97,-13890,-5473.6
11.968,-13827,-5472.9
11.968,-13788,-5471.4
11.968,-13750,-5472.3
11.967,-13744,-5472.8
11.968,-13753,-5475.6
11.971,-13760,-5477
11.97,-13756,-5471.4
11.967,-13755,-5472.9
11.965,-13760,-5468.3
11.965,-13757,-5465.5
11.967,-13759,-5471.4
11.967,-13753,-5473.7
11.965,-13747,-5476.3
11.966,-13749,-5478.7
11.966,-13742,-5475.8
11.966,-13745,-5476.2
11.965,-13750,-5473.5
11.963,-13743,-5467.7
11.961,-13730,-5468.4
11.961,-13722,-5462.2
11.963,-13722,-5468.5
11.965,-13742,-5476.3
11.967,-13743,-5483.1
11.966,-13727,-5482.4
11.963,-13711,-5480.7
11.961,-13708,-5480.4
11.962,-13691,-5474.2
11.964,-13688,-5470.6
11.963,-13689,-5466.4
11.963,-13684,-5479.1
11.961,-13685,-5488.1
11.963,-13682,-5483.4
11.964,-13692,-5482.9
11.963,-13694,-5483.1
11.961,-13688,-5480.8
11.961,-13691,-5474.4
11.96,-13689,-5466.2
11.961,-13690,-5467.6
11.961,-13698,-5474.8
11.96,-13702,-5477.7
11.961,-13707,-5477.1
11.961,-13688,-5475.4
11.961,-13670,-5477.4
11.963,-13667,-5478.4
11.96,-13665,-5478.1
11.956,-13667,-5483.1
11.958,-13667,-5482.1
11.958,-13663,-5480.7
11.959,-13660,-5477.9
11.958,-13657,-5476.2
11.956,-13660,-5478.3
11.957,-13657,-5477.9
11.96,-13655,-5477.4
11.957,-13663,-5480
11.956,-13670,-5476.1
11.956,-13674,-5479.3
11.951,-13670,-5478.6
11.954,-13656,-5473.4
11.956,-13636,-5470.8
11.955,-13639,-5468.5
11.956,-13639,-5469.2
11.955,-13642,-5470.8
11.954,-13649,-5471.7
11.954,-13639,-5473.5
11.956,-13635,-5480.4
11.954,-13640,-5481.5
11.955,-13638,-5476.5
11.954,-13640,-5477.6
11.956,-13621,-5469
11.955,-13615,-5465.4
11.951,-13609,-5475.3
11.951,-13602,-5473.8
11.952,-13606,-5476.2
11.951,-13613,-5479.9
11.953,-13623,-5478.6
11.951,-13617,-5482.1
11.949,-13604,-5482.4
11.95,-13594,-5479.2
11.949,-13585,-5477.1
11.949,-13580,-5471.7
11.951,-13580,-5472.4
11.952,-13586,-5475
11.951,-13582,-5477.6
11.95,-13575,-5478.7
11.95,-13569,-5481.8
11.95,-13564,-5477
11.949,-13557,-5479.5
11.95,-13553,-5477.9
11.951,-13547,-5476.2
11.95,-13535,-5476.7
11.946,-13537,-5471.6
11.946,-13541,-5471.5
11.947,-13535,-5468.5
11.948,-13517,-5471.5
11.949,-13510,-5472.6
11.947,-13501,-5477.9
11.947,-13497,-5478.2
11.947,-13491,-5474.1
11.948,-13480,-5471.7
11.945,-13473,-5463.6
11.947,-13462,-5465.3
11.946,-13458,-5468
11.945,-13456,-5470.1
11.947,-13450,-5472.4
11.946,-13446,-5477.4
11.945,-13432,-5474.5
11.946,-13432,-5473.7
11.946,-13423,-5471
11.945,-13423,-5471.6
11.946,-13410,-5467.7
11.945,-13400,-5467.4
11.944,-13402,-5472.5
11.944,-13395,-5474.5
11.946,-13383,-5475.6
11.945,-13392,-5463.1
11.944,-13394,-5455.7
11.947,-13377,-5462.4
11.943,-13360,-5468.9
11.941,-13358,-5473.9
11.945,-13350,-5481.6
11.943,-13344,-5475.2
11.941,-13342,-5466.5
11.942,-13330,-5468.1
11.943,-13326,-5474.9
11.944,-13328,-5474.6
11.944,-13323,-5475.4
11.942,-13324,-5477.6
11.944,-13325,-5474.6
11.942,-13324,-5467.1
11.942,-13311,-5466.5
11.943,-13294,-5465.2
11.941,-13295,-5463.1
11.941,-13299,-5464.5
11.942,-13303,-5465.5
11.941,-13317,-5467.6
11.939,-13339,-5473.3
11.939,-13355,-5470.3
11.938,-13361,-5466.9
11.939,-13369,-5468.6
11.94,-13362,-5474.3
11.94,-13365,-5472.2
11.94,-13374,-5472.4
11.937,-13387,-5471.7
11.935,-13405,-5472.1
11.938,-13422,-5477.1
11.939,-13440,-5478.3
11.938,-13458,-5478
11.94,-13474,-5477.6
11.937,-13488,-5479.7
11.935,-13504,-5482.8
11.939,-13520,-5477.7
11.938,-13531,-5473.9
11.937,-13551,-5475.5
11.938,-13562,-5476.6
11.939,-13567,-5478.1
11.935,-13583,-5479.9
11.934,-13602,-5482.2
11.936,-13611,-5479.7
11.936,-13623,-5479.1
11.936,-13632,-5481.4
11.934,-13633,-5480.2
11.933,-13643,-5472.4
11.934,-13660,-5466.1
11.933,-13661,-5471.4
11.934,-13669,-5481.6
11.935,-13680,-5483.7
11.933,-13686,-5477.3
11.931,-13691,-5481.6
11.934,-13688,-5485.6
11.935,-13688,-5476.6
11.933,-13689,-5469.2
11.933,-13694,-5462.2
11.934,-13695,-5462.9
11.934,-13705,-5474.6
11.933,-13704,-5484.8
11.934,-13705,-5485.4
11.934,-13716,-5485.6
11.936,-13714,-5486
11.932,-13710,-5488.5
11.932,-13707,-5486.2
11.936,-13703,-5484.4
11.933,-13701,-5486.7
11.931,-13701,-5486.1
11.934,-13704,-5482.7
11.934,-13705,-5484.9
11.93,-13704,-5479.5
11.933,-13707,-5482.2
11.934,-13704,-5481.2
11.931,-13699,-5480.5
11.929,-13703,-5483.1
11.929,-13711,-5484.3
11.929,-13701,-5480.7
11.928,-13702,-5474.1
11.93,-13709,-5474.2
11.932,-13708,-5474.2
11.93,-13714,-5476.5
11.932,-13723,-5481.6
11.931,-13723,-5484.1
11.929,-13712,-5486.2
11.929,-13715,-5483.6
11.93,-13715,-5480
11.929,-13711,-5478.7
11.929,-13715,-5474.4
11.93,-13721,-5473.3
11.93,-13734,-5475.3
11.927,-13736,-5470.8
11.925,-13737,-5474.4
11.929,-13717,-5480.6
11.93,-13709,-5480.7
11.929,-13707,-5485.3
11.93,-13702,-5480.6
11.931,-13700,-5478.8
11.93,-13702,-5477.2
11.928,-13706,-5477.9
11.927,-13714,-5478.8
11.929,-13716,-5484.2
11.927,-13721,-5487.1
11.928,-13720,-5488.6
11.928,-13720,-5482.6
11.928,-13720,-5478.8
11.928,-13724,-5477.1
11.926,-13728,-5470.5
11.927,-13725,-5469.6
11.924,-13731,-5476.8
11.924,-13725,-5483.6
11.926,-13719,-5487.2
11.926,-13719,-5486.8
11.924,-13726,-5487.1
11.924,-13731,-5488.3
11.924,-13736,-5489.9
11.925,-13734,-5482.3
11.927,-13738,-5480.4
11.926,-13734,-5484.1
11.925,-13736,-5478.1
11.925,-13736,-5474.6
11.926,-13740,-5476.5
11.927,-13741,-5476.7
11.927,-13744,-5473.9
11.928,-13744,-5480.4
11.928,-13746,-5481.5
11.927,-13757,-5483.8
11.925,-13757,-5478.8
11.924,-13755,-5478
11.922,-13743,-5474.9
11.925,-13740,-5470.8
11.925,-13741,-5472.6
11.925,-13744,-5479.7
11.925,-13758,-5482.9
11.926,-13760,-5483.1
11.927,-13759,-5484.2
11.924,-13764,-5482.6
11.925,-13763,-5480
11.927,-13761,-5474.8
11.924,-13757,-5479.4
11.923,-13760,-5480.8
11.925,-13763,-5473.8
11.924,-13763,-5473.7
11.923,-13758,-5474.6
11.924,-13764,-5470.4
11.924,-13770,-5472.3
11.924,-13778,-5472.9
11.925,-13772,-5471.4
11.926,-13768,-5474
11.924,-13765,-5471.4
11.923,-13764,-5468.5
11.922,-13765,-5468.3
11.923,-13785,-5471.2
11.923,-13800,-5480.9
11.925,-13801,-5477.3
11.923,-13800,-5482.4
11.924,-13798,-5485.8
11.927,-13783,-5489.6
11.926,-13758,-5483.4
11.927,-13760,-5474.4
11.925,-13761,-5472.4
11.924,-13761,-5478.9
11.924,-13771,-5478.9
11.924,-13772,-5483.4
11.923,-13775,-5483.6
11.925,-13783,-5478.2
11.924,-13781,-5475.9
11.923,-13782,-5479.6
11.926,-13789,-5483.1
11.925,-13792,-5482.8
11.923,-13789,-5479.9
11.923,-13786,-5477.7
11.925,-13783,-5479.8
11.925,-13777,-5475.5
11.925,-13786,-5478.1
11.922,-13792,-5478.9
11.924,-13793,-5478.8
11.926,-13789,-5481.3
11.923,-13776,-5479.7
11.922,-13774,-5479
11.924,-13775,-5475.8
11.926,-13782,-5469.5
11.924,-13785,-5466.4
11.923,-13786,-5472.7
11.924,-13789,-5480.9
11.923,-13783,-5483.8
11.923,-13788,-5485.2
11.921,-13789,-5480.3
11.92,-13793,-5478.1
11.925,-13793,-5479.1
11.926,-13780,-5467.1
11.926,-13773,-5467.7
11.925,-13784,-5473.5
11.924,-13782,-5479.3
11.922,-13784,-5479.9
11.926,-13779,-5477.9
11.928,-13781,-5487.1
11.926,-13786,-5488.3
11.928,-13791,-5481
11.926,-13789,-5474
11.923,-13792,-5468.5
11.926,-13792,-5470.8
11.927,-13786,-5474.4
11.926,-13786,-5473.6
11.928,-13792,-5466.7
11.927,-13794,-5471.4
11.925,-13793,-5477.6
11.924,-13797,-5477.9
11.926,-13801,-5481.8
11.926,-13796,-5483.1
11.927,-13790,-5483.7
11.93,-13787,-5477.5
11.929,-13791,-5478.4
11.929,-13793,-5481.3
11.929,-13787,-5483.1
11.929,-13790,-5486.6
11.93,-13800,-5489
11.93,-13805,-5489.3
11.93,-13812,-5481.6
11.929,-13807,-5471.9
11.928,-13807,-5475.6
11.929,-13804,-5480.2
11.926,-13799,-5477.2
11.927,-13791,-5481.5
11.929,-13782,-5478.5
11.929,-13787,-5476.4
11.93,-13785,-5484.4
11.928,-13797,-5490.5
11.927,-13799,-5490.5
11.93,-13795,-5490.1
11.932,-13792,-5482.4
11.931,-13781,-5478.6
11.928,-13784,-5479.5
11.927,-13789,-5478.5
11.926,-13785,-5479
11.926,-13782,-5476
11.928,-13773,-5478.3
11.927,-13776,-5479.5
11.927,-13784,-5482.1
11.93,-13791,-5487.7
11.929,-13793,-5485.5
11.929,-13789,-5480.8
11.931,-13789,-5474.9
11.928,-13785,-5475.2
11.928,-13791,-5481.9
11.93,-13786,-5486.3
11.929,-13787,-5480.6
11.927,-13791,-5480.1
11.93,-13796,-5485.4
11.931,-13795,-5481.2
11.929,-13797,-5478.9
11.931,-13790,-5473.5
11.933,-13789,-5468.9
11.933,-13790,-5465.7
11.93,-13809,-5474.8
11.931,-13817,-5478.2
11.932,-13807,-5475.1
11.932,-13802,-5483.6
11.933,-13802,-5484.5
11.931,-13795,-5483.5
11.935,-13803,-5489
11.935,-13803,-5492.3
11.933,-13798,-5487
11.93,-13802,-5484.6
11.933,-13801,-5485.6
11.936,-13810,-5487.4
11.934,-13799,-5485.8
11.934,-13801,-5477.7
11.935,-13813,-5479.2
11.937,-13816,-5484
11.936,-13806,-5481.7
11.938,-13794,-5480.6
11.936,-13787,-5484.2
11.935,-13781,-5475.5
11.933,-13793,-5478.1
11.933,-13805,-5480.7
11.934,-13814,-5478.2
11.939,-13823,-5478.1
11.936,-13816,-5481.2
11.935,-13804,-5480.5
11.934,-13805,-5477.9
11.937,-13780,-5473.1
11.939,-13772,-5473.5
11.938,-13781,-5480.8
11.939,-13786,-5479
11.936,-13786,-5479.3
11.936,-13790,-5480.3
11.938,-13801,-5487.3
11.938,-13798,-5485.6
11.937,-13793,-5484.1
11.938,-13805,-5485.7
11.94,-13808,-5483.9
11.939,-13811,-5483.8
11.941,-13801,-5483.7
11.942,-13796,-5477.8
11.94,-13804,-5481.9
11.938,-13810,-5486
11.941,-13806,-5482.1
11.942,-13807,-5483.3
11.938,-13815,-5481.8
11.94,-13810,-5477.6
11.944,-13805,-5469.4
11.944,-13793,-5460.4
11.942,-13780,-5457
11.943,-13780,-5463.3
11.942,-13785,-5467.7
11.944,-13786,-5472.6
11.943,-13791,-5482
11.943,-13799,-5490
11.947,-13793,-5491.9
11.948,-13795,-5493
11.946,-13797,-5485.3
11.946,-13801,-5487.6
11.945,-13811,-5484.5
11.945,-13807,-5478.1
11.949,-13790,-5476.8
11.946,-13786,-5480.6
11.945,-13791,-5484
11.948,-13789,-5481.4
11.944,-13789,-5481.4
11.946,-13791,-5479.4
11.95,-13793,-5481.3
11.946,-13795,-5478.1
11.946,-13793,-5477.8
11.949,-13792,-5479.8
11.951,-13793,-5475.1
11.948,-13796,-5476
11.944,-13803,-5479.4
11.945,-13807,-5483.9
11.947,-13816,-5491.1
11.951,-13819,-5488.4
11.95,-13816,-5490.7
11.949,-13792,-5483.1
11.953,-13788,-5480.2
11.953,-13792,-5474.6
11.954,-13788,-5475.6
11.952,-13787,-5479.4
11.955,-13799,-5480
11.955,-13807,-5479
11.955,-13799,-5482.5
11.952,-13785,-5486.8
11.953,-13782,-5481.6
11.952,-13781,-5481.7
11.952,-13773,-5482.8
11.954,-13767,-5478.8
11.956,-13767,-5471.1
11.953,-13769,-5470.8
11.954,-13768,-5482.5
11.954,-13775,-5488.5
11.955,-13784,-5483.1
11.956,-13784,-5489.1
11.955,-13781,-5482.2
11.955,-13782,-5485.1
11.957,-13775,-5490.1
11.956,-13773,-5489.7
11.958,-13760,-5487.9
11.957,-13739,-5488.1
11.957,-13734,-5485.3
11.958,-13738,-5480.6
11.959,-13746,-5484.3
11.957,-13766,-5492.1
11.958,-13766,-5500.3
11.961,-13760,-5496.7
11.962,-13755,-5490.6
11.961,-13722,-5485.6
11.96,-13695,-5482.2
11.959,-13681,-5486.9
11.956,-13658,-5485.7
11.96,-13661,-5485.8
11.959,-13677,-5484.6
11.961,-13671,-5481
11.962,-13701,-5485.1
11.962,-13731,-5489
11.959,-13742,-5493.1
11.959,-13728,-5493.2
11.961,-13724,-5485.6
11.965,-13725,-5482.7
11.964,-13730,-5481.7
11.964,-13724,-5479.7
11.964,-13738,-5480.5
11.961,-13735,-5478.8
11.966,-13740,-5483.6
11.966,-13760,-5483
11.967,-13765,-5481.6
11.969,-13768,-5481.6
11.971,-13779,-5476.1
11.971,-13796,-5479.6
11.968,-13806,-5478.9
11.969,-13810,-5482.7
11.969,-13820,-5487.1
11.972,-13834,-5490.9
11.969,-13823,-5497.3
11.968,-13827,-5495.6
11.972,-13828,-5483.1
11.973,-13833,-5480.3
11.971,-13842,-5479.8
11.973,-13839,-5482.5
11.974,-13834,-5484.3
11.972,-13829,-5480.3
11.971,-13828,-5483.6
11.973,-13819,-5485.7
11.971,-13812,-5485.7
11.97,-13818,-5485.3
11.973,-13814,-5480.3
11.973,-13814,-5479.2
11.974,-13809,-5475.5
11.974,-13817,-5477.3
11.975,-13833,-5475.7
11.978,-13825,-5476.6
11.976,-13826,-5480.8
11.974,-13832,-5484.9
11.979,-13825,-5487.3
11.979,-13825,-5484.5
11.977,-13827,-5483.2
11.977,-13824,-5488.3
11.978,-13815,-5481
11.976,-13814,-5480.3
11.977,-13813,-5481.6
11.975,-13816,-5480
11.979,-13818,-5479.6
11.981,-13815,-5471.9
11.98,-13812,-5475.8
11.981,-13816,-5480.8
11.979,-13814,-5485.2
11.979,-13833,-5485.1
11.983,-13865,-5488.1
11.984,-13898,-5491.3
11.982,-13930,-5490.5
11.981,-13934,-5481.6
11.982,-13920,-5482.1
11.984,-13922,-5486.1
11.985,-13894,-5486.6
11.985,-13826,-5487.5
11.986,-13727,-5489.2
11.985,-13578,-5490.8
11.987,-13361,-5483.6
11.987,-13143,-5483.4
11.986,-12935,-5478.5
11.985,-12755,-5460.1
11.981,-12671,-5450
11.985,-12636,-5444.4
11.987,-12573,-5428.2
11.986,-12639,-5414.1
11.985,-12789,-5405.5
11.986,-13063,-5401.5
11.986,-13328,-5405.4
11.988,-13573,-5407.8
11.989,-13810,-5416.2
11.989,-14060,-5424.6
11.991,-14215,-5430.1
11.992,-14272,-5427.8
11.99,-14289,-5442.9
11.99,-14284,-5455.8
11.99,-14251,-5462.9
11.994,-14249,-5463.6
11.992,-14234,-5458.3
11.992,-14166,-5453.6
11.992,-14094,-5462.1
11.99,-14000,-5470.6
11.991,-13933,-5476.9
11.994,-13864,-5485.3
11.995,-13801,-5478.8
11.995,-13761,-5474.1
11.995,-13731,-5473.5
11.997,-13728,-5472.6
11.997,-13745,-5469.8
11.995,-13757,-5471.3
11.996,-13748,-5469.3
11.995,-13734,-5471.8
11.993,-13724,-5472.4
11.997,-13721,-5471.7
11.999,-13721,-5469.1
11.999,-13718,-5472
11.998,-13717,-5477.8
11.999,-13725,-5479.5
12,-13718,-5474
12,-13713,-5474.2
12.001,-13712,-5470.1
12.002,-13707,-5464.7
12.002,-13700,-5465.9
12.002,-13700,-5473.9
12.004,-13704,-5475
12.005,-13706,-5465.3
12.002,-13701,-5468.6
12.002,-13718,-5470.8
12.004,-13738,-5473.8
12.004,-13719,-5480
12.005,-13679,-5474.3
12.005,-13675,-5474.4
12.004,-13660,-5473.4
12.008,-13664,-5479.5
12.007,-13672,-5480
12.004,-13672,-5485.5
12.005,-13670,-5489.1
12.009,-13671,-5488.7
12.006,-13671,-5481.4
12.008,-13666,-5474.9
12.008,-13661,-5477.6
12.006,-13665,-5479.4
12.008,-13662,-5475.4
12.008,-13657,-5472.1
12.006,-13662,-5476
12.006,-13668,-5477.1
12.006,-13664,-5475.1
12.009,-13652,-5482
12.008,-13652,-5478.6
12.009,-13651,-5478.9
12.01,-13647,-5473.3
12.008,-13651,-5473.5
12.011,-13651,-5466.3
12.01,-13637,-5462
12.011,-13631,-5471.3
12.014,-13622,-5479.7
12.013,-13636,-5482.9
12.013,-13647,-5488
12.014,-13642,-5484
12.012,-13640,-5477.1
12.014,-13626,-5477.6
12.012,-13614,-5478.9
12.01,-13605,-5478.5
12.012,-13610,-5474.5
12.013,-13612,-5475.6
12.016,-13615,-5478.7
12.016,-13613,-5477.6
12.013,-13614,-5480.1
12.016,-13611,-5480.9
12.016,-13599,-5473.9
12.018,-13596,-5472.1
12.018,-13592,-5473.2
12.019,-13588,-5470.6
12.018,-13585,-5470.1
12.015,-13600,-5474.6
12.015,-13604,-5479.8
12.018,-13598,-5484.3
12.016,-13583,-5482.9
12.017,-13575,-5480.9
12.021,-13568,-5480.4
12.022,-13561,-5476.3
12.019,-13549,-5468.3
12.021,-13560,-5467.9
12.021,-13570,-5468.7
12.019,-13552,-5473.5
12.02,-13547,-5482
12.021,-13545,-5482.2
12.022,-13534,-5480.5
12.02,-13525,-5473.9
12.024,-13524,-5477.3
12.025,-13521,-5478.7
12.026,-13515,-5472.2
12.026,-13509,-5474.9
12.025,-13505,-5480.5
12.028,-13508,-5477.6
12.026,-13505,-5478.8
12.025,-13497,-5477.3
12.026,-13480,-5476.2
12.026,-13482,-5478.1
12.026,-13481,-5479.1
12.027,-13472,-5481.1
12.026,-13453,-5479.5
12.026,-13445,-5472.7
12.029,-13442,-5474.8
12.029,-13432,-5477.6
12.03,-13431,-5478.1
12.028,-13418,-5479.3
12.029,-13408,-5483
12.029,-13407,-5479.7
12.031,-13401,-5483.8
12.031,-13387,-5471.3
12.029,-13380,-5470.8
12.03,-13374,-5466.1
12.03,-13366,-5466.4
12.029,-13360,-5464.2
12.031,-13356,-5471.5
12.031,-13349,-5476.5
12.035,-13350,-5476
12.036,-13345,-5477.4
12.035,-13336,-5474.8
12.034,-13330,-5472.2
12.033,-13337,-5470.9
12.034,-13323,-5463.6
12.035,-13309,-5470.5
12.036,-13303,-5475.5
12.037,-13304,-5476.3
12.039,-13306,-5475.1
12.034,-13300,-5481.7
12.035,-13298,-5481.6
12.038,-13299,-5472.9
12.038,-13300,-5470.8
12.039,-13288,-5470
12.038,-13270,-5470.2
12.037,-13276,-5471.8
12.037,-13267,-5473.9
12.038,-13269,-5476.7
12.039,-13279,-5475.9
12.039,-13285,-5475.9
12.039,-13293,-5473.4
12.04,-13297,-5478.7
12.043,-13303,-5476.6
12.042,-13322,-5472.8
12.042,-13333,-5467
12.04,-13338,-5468.6
12.04,-13366,-5474.1
12.041,-13393,-5471.3
12.04,-13403,-5472.7
12.04,-13417,-5471.9
12.043,-13442,-5476.8
12.043,-13452,-5478.2
12.044,-13448,-5476.2
12.043,-13461,-5481
12.041,-13471,-5480.9
12.043,-13480,-5481.4
12.044,-13507,-5486.1
12.043,-13532,-5478.1
12.044,-13542,-5475.4
12.048,-13542,-5477.9
12.048,-13550,-5483.1
12.045,-13564,-5483.2
12.045,-13577,-5482
12.044,-13588,-5480.8
12.046,-13590,-5475
12.049,-13597,-5468.3
12.048,-13605,-5469.6
12.046,-13612,-5472.8
12.047,-13623,-5471.3
12.048,-13628,-5476.1
12.049,-13638,-5482.9
12.048,-13653,-5480.7
12.047,-13656,-5478.6
12.048,-13664,-5479.6
12.048,-13656,-5476.7
12.048,-13662,-5476.3
12.047,-13668,-5474.9
12.047,-13661,-5474.9
12.048,-13666,-5479.4
12.051,-13670,-5480.8
12.051,-13668,-5483.4
12.051,-13668,-5484
12.051,-13675,-5484.6
12.052,-13681,-5483
12.053,-13675,-5480.9
12.052,-13671,-5483.4
12.05,-13669,-5480.6
12.051,-13670,-5478.8
12.051,-13682,-5479.8
12.052,-13688,-5477.9
12.053,-13678,-5480.9
12.053,-13670,-5481.8
12.051,-13671,-5482.4
12.054,-13670,-5479.8
12.056,-13675,-5476.6
12.055,-13671,-5476.4
12.054,-13672,-5475.9
12.051,-13676,-5476.9
12.052,-13669,-5479.8
12.054,-13669,-5484.8
12.053,-13675,-5484.3
12.056,-13678,-5481.8
12.056,-13676,-5475.9
12.055,-13677,-5474
12.056,-13678,-5480.1
12.057,-13682,-5485.5
12.057,-13679,-5484.7
12.058,-13678,-5480.6
12.058,-13676,-5482.7
12.058,-13675,-5486
12.058,-13687,-5486.4
12.057,-13700,-5489
12.057,-13709,-5484.2
12.056,-13698,-5485.3
12.056,-13685,-5486.1
12.058,-13679,-5482.9
12.059,-13680,-5476.9
12.058,-13688,-5472.4
12.06,-13688,-5473.3
12.058,-13676,-5476.4
12.057,-13677,-5479.6
12.059,-13696,-5485.2
12.058,-13691,-5490.4
12.06,-13680,-5489.6
12.062,-13682,-5483.6
12.062,-13681,-5476.8
12.064,-13681,-5478.7
12.059,-13684,-5473.1
12.059,-13685,-5474.4
12.061,-13692,-5486.7
12.065,-13694,-5486.9
12.065,-13694,-5487.8
12.063,-13700,-5489.9
12.064,-13706,-5491.2
12.065,-13705,-5488
12.065,-13703,-5484.1
12.065,-13705,-5479.5
12.066,-13701,-5476.1
12.066,-13693,-5475
12.065,-13695,-5478.5
12.064,-13695,-5478.4
12.067,-13710,-5477
12.067,-13724,-5480.5
12.064,-13728,-5483.6
12.064,-13717,-5487.1
12.066,-13711,-5480.4
12.067,-13706,-5474
12.068,-13697,-5472.6
12.07,-13703,-5476.5
12.071,-13718,-5483
12.069,-13719,-5481.7
12.068,-13716,-5481.4
12.069,-13720,-5486.1
12.068,-13721,-5489
12.069,-13723,-5489.7
12.07,-13725,-5488.9
12.067,-13727,-5485
12.067,-13727,-5480.5
12.071,-13720,-5478
12.073,-13721,-5477
12.072,-13726,-5473.7
12.073,-13727,-5474.8
12.073,-13740,-5482.8
12.07,-13748,-5485.1
12.072,-13751,-5484.8
12.073,-13750,-5480.8
12.074,-13738,-5475.1
12.073,-13725,-5477.1
12.072,-13724,-5477.3
12.073,-13729,-5477
12.076,-13730,-5484
12.074,-13728,-5489.6
12.074,-13732,-5483.9
12.076,-13736,-5484.4
12.076,-13738,-5481.4
12.075,-13741,-5474.6
12.075,-13743,-5478.3
12.074,-13751,-5476
12.075,-13747,-5477.1
12.075,-13732,-5480.8
12.076,-13735,-5480.8
12.078,-13734,-5478
12.078,-13732,-5476.6
12.079,-13742,-5481.9
12.08,-13746,-5485.2
12.079,-13748,-5487.1
12.076,-13744,-5491.2
12.077,-13754,-5482.8
12.079,-13756,-5487.4
12.079,-13745,-5488
12.079,-13740,-5482.6
12.078,-13739,-5485.8
12.08,-13737,-5484.9
12.082,-13760,-5489.1
12.083,-13769,-5493.4
12.082,-13763,-5489
12.079,-13752,-5488
12.08,-13741,-5488.8
12.084,-13741,-5483.1
12.084,-13738,-5482.6
12.082,-13735,-5483.5
12.081,-13742,-5485.5
12.083,-13733,-5484.5
12.085,-13747,-5483.6
12.084,-13768,-5484.6
12.084,-13751,-5487
12.085,-13736,-5482.3
12.084,-13739,-5478.8
12.085,-13730,-5473.1
12.087,-13727,-5479
12.085,-13738,-5479.6
12.084,-13740,-5481.5
12.085,-13740,-5484.6
12.088,-13743,-5483.2
12.088,-13749,-5485.4
12.089,-13749,-5491.9
12.09,-13748,-5493.4
12.091,-13747,-5485.3
12.089,-13748,-5483
12.088,-13752,-5479
12.088,-13745,-5484.1
12.091,-13738,-5480.9
12.089,-13740,-5475.4
12.088,-13747,-5477.9
12.088,-13748,-5480.8
12.092,-13762,-5499.5
12.092,-13757,-5501.9
12.093,-13755,-5496.2
12.094,-13752,-5494.1
12.093,-13740,-5494.5
12.092,-13745,-5491.2
12.092,-13751,-5486.9
12.09,-13739,-5488.2
12.09,-13749,-5491.6
12.093,-13753,-5491.3
12.094,-13746,-5491.4
12.095,-13748,-5492.4
12.095,-13746,-5485
12.092,-13739,-5487.5
12.094,-13740,-5485.4
12.095,-13751,-5475
12.096,-13751,-5471.6
12.098,-13743,-5473.4
12.097,-13741,-5475.9
12.097,-13747,-5484.4
12.096,-13753,-5493.3
12.097,-13751,-5494.6
12.098,-13756,-5489.9
12.099,-13754,-5493.5
12.1,-13750,-5491.2
12.099,-13734,-5484.9
12.099,-13729,-5485.9
12.102,-13741,-5481.5
12.102,-13737,-5482.1
12.102,-13731,-5486.5
12.103,-13742,-5491.3
12.102,-13742,-5493.9
12.103,-13742,-5489.6
12.103,-13750,-5492.4
12.104,-13742,-5492.6
12.103,-13745,-5488.8
12.101,-13761,-5489.3
12.102,-13757,-5489.9
12.101,-13747,-5493.4
12.101,-13758,-5494.9
12.104,-13764,-5490.1
12.103,-13751,-5491.1
12.104,-13733,-5496.5
12.105,-13738,-5492.7
12.104,-13737,-5485
12.102,-13725,-5482.5
12.105,-13734,-5482
12.11,-13747,-5481
12.109,-13745,-5483.4
12.107,-13741,-5481.9
12.108,-13745,-5485.8
12.108,-13747,-5491.3
12.107,-13742,-5494
12.108,-13748,-5482.3
12.108,-13750,-5481.4
12.11,-13745,-5489.5
12.109,-13748,-5486
12.107,-13743,-5487.7
12.109,-13744,-5490.1
12.111,-13753,-5493
12.11,-13742,-5493.3
12.111,-13740,-5496.5
12.114,-13746,-5499.1
12.113,-13753,-5489.2
12.111,-13752,-5488.4
12.11,-13745,-5492.7
12.112,-13744,-5489.3
12.112,-13746,-5486.8
12.11,-13742,-5484.9
12.112,-13741,-5479.8
12.115,-13748,-5477.2
12.117,-13757,-5480.1
12.118,-13749,-5482.6
12.113,-13743,-5485.8
12.113,-13745,-5481
12.117,-13737,-5480.9
12.115,-13742,-5481.6
12.116,-13738,-5483.4
12.12,-13738,-5486
12.12,-13749,-5481.5
12.119,-13748,-5480.5
12.122,-13750,-5480.9
12.122,-13744,-5487.5
12.12,-13750,-5491.1
12.121,-13759,-5486.1
12.119,-13756,-5484.5
12.12,-13742,-5487.7
12.121,-13735,-5487.7
12.12,-13739,-5487.3
12.121,-13739,-5488.2
12.124,-13746,-5484.5
12.124,-13751,-5485.8
12.124,-13742,-5481.7
12.123,-13741,-5478.2
12.121,-13738,-5479.4
12.123,-13746,-5485
12.124,-13749,-5493.1
12.127,-13740,-5488.3
12.127,-13737,-5478.4
12.124,-13739,-5478
12.122,-13744,-5478.1
12.122,-13742,-5476.1
12.127,-13737,-5474.8
12.128,-13739,-5476.6
12.129,-13749,-5475.4
12.13,-13757,-5471.8
12.129,-13757,-5481.1
12.129,-13750,-5487.3
12.13,-13740,-5487.3
12.131,-13736,-5486.7
12.132,-13733,-5487.5
12.133,-13742,-5484.1
12.133,-13762,-5483.9
12.133,-13759,-5483
12.134,-13743,-5483.4
12.135,-13746,-5486.5
12.134,-13736,-5483
12.133,-13729,-5486.8
12.134,-13737,-5483.4
12.134,-13733,-5483.8
12.135,-13739,-5490.3
12.137,-13749,-5490.9
12.136,-13744,-5493.6
12.137,-13741,-5491.7
12.139,-13742,-5484.9
12.141,-13749,-5479.8
12.141,-13746,-5479.2
12.138,-13738,-5483.4
12.138,-13739,-5483.5
12.141,-13733,-5479.8
12.141,-13735,-5482
12.142,-13736,-5482.4
12.142,-13730,-5483.2
12.141,-13727,-5483.6
12.142,-13727,-5488.6
12.144,-13727,-5489.3
12.145,-13729,-5483.9
12.144,-13729,-5487.4
12.147,-13726,-5489.3
12.15,-13725,-5488.1
12.147,-13726,-5488.5
12.146,-13722,-5492.1
12.147,-13721,-5494.8
12.149,-13728,-5495.9
12.15,-13729,-5499.4
12.15,-13726,-5502.9
12.147,-13720,-5504.8
12.147,-13702,-5504.3
12.149,-13695,-5502.2
12.147,-13693,-5502.8
12.148,-13694,-5499.7
12.152,-13706,-5496.6
12.152,-13719,-5503.9
12.149,-13717,-5504.4
12.148,-13706,-5504.1
12.151,-13689,-5502.4
12.155,-13671,-5494.7
12.153,-13647,-5492.1
12.153,-13624,-5491.9
12.155,-13618,-5500.9
12.155,-13633,-5508.7
12.156,-13636,-5500.3
12.156,-13641,-5499.5
12.155,-13669,-5506.3
12.157,-13683,-5512
12.157,-13690,-5518.6
12.157,-13696,-5519
12.159,-13697,-5515.9
12.16,-13701,-5511.1
12.159,-13703,-5510.3
12.158,-13698,-5503.9
12.16,-13697,-5502.5
12.163,-13694,-5503.5
12.161,-13703,-5495.6
12.162,-13715,-5491.7
12.162,-13724,-5484
12.161,-13742,-5484.3
12.162,-13759,-5491.4
12.162,-13767,-5494.6
12.163,-13763,-5494.8
12.164,-13764,-5493.5
12.164,-13779,-5499.1
12.164,-13785,-5509.7
12.164,-13790,-5514.8
12.165,-13795,-5509.7
12.166,-13795,-5507.6
12.166,-13795,-5505.6
12.168,-13789,-5499.3
12.167,-13788,-5493.8
12.167,-13786,-5492.4
12.168,-13790,-5492.5
12.167,-13795,-5487
12.168,-13785,-5477.9
12.168,-13788,-5482.8
12.169,-13793,-5495.1
12.169,-13807,-5499.9
12.17,-13810,-5503
12.172,-13798,-5501.8
12.171,-13795,-5499.6
12.174,-13794,-5500.5
12.177,-13803,-5496.5
12.175,-13803,-5494.4
12.174,-13791,-5493.1
12.171,-13790,-5497.6
12.172,-13800,-5500.3
12.176,-13794,-5494.2
12.175,-13799,-5497.9
12.176,-13807,-5494.9
12.178,-13799,-5491.6
12.178,-13802,-5495.8
12.176,-13799,-5492.2
12.175,-13793,-5492.4
12.177,-13792,-5495.5
12.177,-13787,-5495.4
12.178,-13784,-5495.1
12.179,-13801,-5498.7
12.181,-13839,-5497
12.182,-13882,-5497.8
12.184,-13908,-5499.2
12.184,-13907,-5500.8
12.182,-13891,-5503.3
12.182,-13898,-5499.8
12.183,-13872,-5500.3
12.184,-13793,-5499.6
12.182,-13713,-5505.9
12.184,-13595,-5513.1
12.185,-13393,-5508.4
12.188,-13183,-5498.7
12.19,-12972,-5489.8
12.19,-12763,-5482.2
12.19,-12656,-5472.7
12.188,-12616,-5460.7
12.188,-12560,-5446.4
12.186,-12612,-5434.8
12.187,-12764,-5426.1
12.192,-13021,-5430.7
12.193,-13329,-5437.4
12.191,-13576,-5431.4
12.19,-13779,-5432
12.191,-14007,-5439.4
12.189,-14161,-5444.8
12.191,-14215,-5440.3
12.195,-14249,-5434.6
12.193,-14237,-5446.3
12.192,-14228,-5460.3
12.193,-14230,-5472.1
12.195,-14216,-5478.6
12.198,-14172,-5479.1
12.2,-14089,-5480.5
12.197,-13995,-5477.2
12.198,-13910,-5468.9
12.198,-13836,-5474.6
12.196,-13774,-5481.6
12.199,-13729,-5487.2
12.203,-13713,-5496.3
12.203,-13724,-5492.9
12.201,-13739,-5491.6
12.2,-13743,-5492.5
12.202,-13742,-5489.9
12.204,-13741,-5490.5
12.206,-13735,-5491
12.204,-13734,-5484.3
12.203,-13733,-5478
12.203,-13727,-5482.6
12.201,-13724,-5486.6
12.203,-13728,-5485.6
12.205,-13724,-5484.5
12.203,-13720,-5489.9
12.204,-13723,-5490.3
12.207,-13720,-5485.1
12.209,-13710,-5484.4
12.207,-13706,-5480.4
12.207,-13703,-5479.3
12.209,-13704,-5477.2
12.208,-13699,-5482.5
12.208,-13695,-5484
12.208,-13694,-5486.5
12.206,-13699,-5493.7
12.209,-13694,-5502.1
12.21,-13691,-5508
12.21,-13695,-5501.3
12.209,-13681,-5498.3
12.207,-13676,-5498.5
12.209,-13680,-5500
12.213,-13678,-5501.9
12.212,-13677,-5501
12.214,-13678,-5496.3
12.214,-13677,-5497.6
12.214,-13677,-5494.8
12.214,-13675,-5495.3
12.214,-13667,-5497.2
12.215,-13664,-5497.2
12.212,-13664,-5495
12.213,-13665,-5488.9
12.213,-13665,-5489.3
12.215,-13664,-5490.6
12.216,-13667,-5491.4
12.217,-13661,-5497.9
12.218,-13660,-5495.9
12.22,-13660,-5497.2
12.222,-13653,-5498.6
12.218,-13651,-5491.8
12.217,-13651,-5488.9
12.217,-13655,-5488.5
12.216,-13646,-5489.7
12.217,-13639,-5500.6
12.217,-13644,-5507.3
12.218,-13645,-5502
12.221,-13642,-5497.7
12.223,-13643,-5492.1
12.222,-13642,-5491.7
12.223,-13634,-5500.9
12.224,-13632,-5498.1
12.224,-13626,-5494.3
12.223,-13620,-5499.3
12.223,-13619,-5497.4
12.225,-13610,-5499.4
12.225,-13606,-5509.1
12.225,-13610,-5512.6
12.228,-13614,-5502.2
12.228,-13610,-5498.2
