scl , ecg , emg_trap
4.698,-928.43,-9945.7
4.698,-935.94,-9964.6
4.698,-945.87,-9995.4
4.6979,-939.89,-10012
4.6971,-940.01,-10024
4.698,-928,-10032
4.6981,-906.3,-10024
4.699,-879.26,-9992.5
4.6989,-856.91,-9987.3
4.6981,-845.39,-9991.8
4.6989,-824.73,-9990.4
4.698,-823.95,-10007
4.698,-822.83,-10050
4.698,-830.03,-10024
4.698,-832.14,-10001
4.698,-853.39,-9984.9
4.6981,-868.73,-9958.3
4.6989,-864.64,-9945.3
4.698,-876.1,-9972.2
4.6981,-889.64,-9976.1
4.699,-909.03,-10005
4.6989,-919,-10005
4.698,-929.37,-9984.3
4.698,-926.1,-9956.3
4.698,-925.65,-9964.1
4.698,-948.32,-9991.4
4.6981,-959.14,-10016
4.699,-970.79,-10024
4.699,-969.18,-10036
4.699,-957.21,-10022
4.699,-959.35,-10002
4.6989,-981.05,-9973.2
4.698,-992.74,-9970.9
4.6981,-989.78,-9968.2
4.699,-1000.5,-9975.6
4.6991,-1000.2,-9976.8
4.6999,-1005.4,-9975.4
4.6991,-1007.3,-10000
4.6999,-1005.9,-10036
4.699,-1005.3,-10050
4.699,-1008.2,-10059
4.699,-1014.2,-10035
4.699,-1020.3,-9995.6
4.699,-1021,-9965.5
4.699,-1028.7,-9948.7
4.6991,-1030.8,-9949.7
4.6999,-1033.3,-9953.2
4.699,-1026.8,-9950.9
4.6991,-1033.5,-9960.3
4.6999,-1031.8,-9971.5
4.6991,-1024.6,-10014
4.7,-1023.1,-10033
4.6999,-1025.7,-10035
4.699,-1030.4,-10034
4.699,-1036.4,-10004
4.6991,-1033.3,-9996.3
4.6999,-1034.6,-10012
4.699,-1044.3,-10009
4.6991,-1041.2,-10007
4.7,-1038.3,-9985.4
4.7,-1039.8,-9976.6
4.6999,-1030.8,-9978.9
4.699,-1028.5,-9991.8
4.699,-1032.2,-10003
4.6991,-1041.6,-10011
4.6999,-1037.8,-10037
4.699,-1042.3,-10037
4.6991,-1042.2,-10034
4.7,-1038.5,-10028
4.7,-1024.6,-10009
4.7,-1024.6,-9991
4.7,-1030.2,-9980
4.6999,-1021.4,-9985
4.699,-1026.2,-9975.5
4.699,-1022.5,-9976.7
4.699,-1018.2,-9985.1
4.6991,-1008.8,-10004
4.7,-1018.6,-10006
4.7,-1014.4,-9968.1
4.7,-1014.9,-9922.5
4.7,-1014.1,-9906.7
4.7,-1015,-9925.7
4.7,-1016.3,-9938.6
4.7,-1034.3,-9957.1
4.7,-1051.2,-9958.7
4.7,-1061.9,-9961.7
4.7,-1091,-9967.1
4.6999,-1110.9,-9975.3
4.6991,-1076,-9992.6
4.7,-1004.5,-10017
4.7,-919.76,-10030
4.7001,-914.62,-10024
4.7009,-845.14,-10010
4.6999,-742.95,-10020
4.6991,-672.03,-10028
4.7,-566.77,-10062
4.7,-425.7,-10056
4.7,-290.46,-10031
4.7001,-93.649,-10016
4.7009,149.91,-10004
4.7,436.88,-9993
4.7,695.49,-10001
4.7,838.13,-10027
4.7,820.71,-10028
4.7,623.84,-10023
4.7,289.05,-9994.5
4.6999,9.934,-9942.1
4.6991,-319.72,-9875.9
4.7,-526.34,-9875.8
4.7,-668.22,-9892.9
4.7,-847.99,-9919.7
4.7001,-986.81,-9974.7
4.701,-1098.8,-9984.4
4.7009,-1210.2,-9958.8
4.7,-1288.9,-9944.2
4.7,-1305.3,-9933.7
4.7,-1236.8,-9889.8
4.7,-1156.1,-9897.8
4.7001,-1070.2,-9936.5
4.7009,-985.35,-9986.4
4.7001,-937.13,-10007
4.7009,-911.09,-10064
4.7,-881.37,-10116
4.7,-870.71,-10053
4.7,-878.46,-10013
4.7,-888.87,-9973.5
4.7,-891.01,-9930.4
4.7,-897.28,-9913.2
4.7,-902.32,-9949.8
4.7001,-895.74,-9991
4.7009,-896.56,-9994.3
4.7,-896.96,-9961.7
4.7,-892.47,-9967.8
4.7,-890.17,-9959.8
4.6999,-893.11,-9944.9
4.699,-889.41,-9959.5
4.6991,-888.27,-9967.5
4.7,-879.85,-9987.8
4.7,-891.23,-9985
4.7,-882.95,-9987.9
4.7,-881.3,-10001
4.7,-880.41,-10014
4.7,-874.52,-10056
4.7,-872.8,-10071
4.6999,-876.4,-10013
4.6991,-884.65,-9966.3
4.7,-877.79,-9925.2
4.6999,-871.51,-9905.5
4.6991,-867.88,-9904
4.7,-878.22,-9937
4.7,-870.5,-9967.3
4.7,-865.11,-10001
4.7,-854.82,-10021
4.699,-845.88,-10026
4.699,-834.88,-10023
4.7,-829.65,-10016
4.699,-832.8,-10037
4.699,-831.11,-10050
4.7,-833.51,-10048
4.7,-832.17,-10006
4.699,-824.03,-9974.5
4.7,-815.57,-9932
4.7,-816.63,-9913.4
4.7,-816.01,-9911.7
4.7,-813.07,-9961.3
4.699,-817.19,-10012
4.699,-815.89,-10026
4.699,-809.53,-10061
4.699,-810.5,-10052
4.699,-798.54,-9983.7
4.699,-785.58,-9937.5
4.699,-784.72,-9900.5
4.699,-779.72,-9912.8
4.7,-765.26,-9991.6
4.699,-761.33,-10044
4.7,-759.73,-10069
4.699,-752.28,-10053
4.699,-749.46,-10020
4.699,-733.75,-10020
4.699,-733.6,-10009
4.699,-722.21,-9998
4.699,-719.18,-10016
4.699,-702.37,-10001
4.7,-702.42,-9992.3
4.7,-698.35,-9985.1
4.699,-698.94,-10015
4.699,-702.1,-10014
4.699,-691.65,-9967.1
4.699,-688.9,-9964.8
4.699,-671.45,-9957.9
4.698,-662.53,-9956.3
4.699,-660.44,-9951.4
4.7,-647.13,-9959.2
4.699,-636.25,-9964
4.699,-625.15,-9979
4.699,-621.36,-9968
4.699,-611.04,-9975.6
4.699,-594.37,-9973.5
4.698,-591.4,-10000
4.698,-583.04,-10002
4.699,-580.79,-10000
4.699,-566.89,-9989.6
4.699,-551.52,-9981.4
4.699,-539.73,-9991.3
4.699,-520.63,-10023
4.699,-521.56,-10039
4.698,-514.88,-10048
4.698,-514.31,-10050
4.698,-497.96,-10097
4.698,-482.68,-10149
4.698,-468.8,-10114
4.699,-457.47,-10071
4.698,-458.36,-10009
4.698,-449.1,-9904
4.698,-438.63,-9816.8
4.698,-443.71,-9861.6
4.698,-444.85,-9912.1
4.699,-447.51,-9966
4.698,-433.37,-9994.1
4.698,-428.92,-9995
4.698,-425.5,-10004
4.698,-415.16,-9995.2
4.698,-406.38,-9980.7
4.698,-406,-9963.5
4.698,-394.89,-9959.7
4.698,-393.74,-9986.4
4.698,-406.91,-10004
4.698,-418.43,-10013
4.697,-435.36,-10013
4.698,-444.56,-9993.7
4.697,-458.65,-10004
4.697,-469.06,-10028
4.697,-475.78,-10052
4.697,-489.87,-10065
4.698,-506.02,-10056
4.698,-527.11,-10035
4.698,-550.62,-10005
4.697,-571.62,-9944.6
4.697,-594.63,-9931.6
4.698,-616.28,-9948.6
4.697,-635.74,-9973.4
4.697,-648.01,-10017
4.698,-670.81,-10069
4.697,-682.27,-10055
4.698,-699.94,-10002
4.698,-718.37,-9967.8
4.697,-724.85,-9929.5
4.697,-745.88,-9894
4.697,-760.82,-9900.9
4.697,-774.94,-9939.1
4.697,-799.17,-9965.1
4.697,-804.29,-9968.5
4.697,-820.64,-9979
4.697,-832.45,-9974.4
4.697,-840.69,-9980.8
4.697,-848.08,-9962.8
4.697,-858.21,-9958.5
4.697,-861.27,-9947.4
4.697,-873.93,-9978.8
4.697,-887.28,-9996.3
4.696,-890.4,-10018
4.697,-896.75,-10005
4.697,-901.65,-9990.7
4.697,-910.39,-9998.8
4.696,-894.34,-9967.7
4.696,-904.75,-9953.3
4.697,-902.98,-9942
4.696,-910.3,-9935
4.696,-916.33,-9928
4.696,-919.93,-9967.2
4.696,-922.23,-9984.4
4.696,-924,-10010
4.696,-920.7,-10072
4.696,-914.73,-10074
4.696,-914.53,-10038
4.697,-918.95,-9984.5
4.696,-916.48,-9959
4.696,-913.16,-9942.4
4.6941,-917.25,-9959.3
4.6959,-914.13,-9975.5
4.695,-914.41,-9958.8
4.696,-914.72,-9959
4.696,-922.42,-9953.5
4.695,-924.35,-9982
4.696,-918.77,-10005
4.695,-922.56,-9998.7
4.695,-914.02,-10004
4.695,-918,-9963.5
4.695,-926.73,-9932.3
4.695,-921.78,-9906.3
4.695,-918.74,-9916.3
4.695,-916.75,-9929.5
4.695,-910.05,-9957.8
4.695,-909.06,-9968.9
4.696,-905.99,-10013
4.696,-910.94,-10069
4.695,-906.06,-10055
4.695,-906.29,-10040
4.695,-917.17,-9975.4
4.695,-914.93,-9934.8
4.695,-908.29,-9905.1
4.694,-908.79,-9891.5
4.695,-914.52,-9886.2
4.694,-904.21,-9939.3
4.694,-900.56,-9970
4.695,-903.18,-9998
4.695,-906.67,-10001
4.695,-910.15,-9983.8
4.694,-911.16,-9967.9
4.694,-908.38,-9999.4
4.694,-904.08,-9982.9
4.694,-912.09,-9986.5
4.6931,-914.2,-10004
4.694,-906.97,-9986.8
4.694,-901.76,-9982.5
4.694,-895.77,-10014
4.694,-895.39,-10005
4.694,-894.95,-9989.8
4.694,-908.08,-9976.1
4.6931,-911.15,-9950
4.693,-912.77,-9939.1
4.693,-908.56,-9965.8
4.693,-908.05,-9998.8
4.693,-903.22,-10017
4.693,-907.31,-9994
4.693,-913.92,-9974.8
4.6939,-911.18,-9938
4.6931,-904.8,-9952.4
4.693,-907.36,-9984.6
4.693,-906.17,-10027
4.6921,-897.06,-9999.4
4.6939,-894.96,-9995.7
4.6931,-901.09,-9970.9
4.6921,-904.05,-9936.8
4.6929,-901.78,-9899.6
4.693,-905.25,-9946.6
4.693,-904.42,-9980.7
4.6921,-912.08,-10031
4.692,-914.84,-10061
4.692,-923.48,-10038
4.692,-931.33,-10004
4.692,-934.75,-9980.2
4.6911,-932.62,-9968.2
4.6919,-933.75,-9933.9
4.6911,-929.77,-9936.3
4.6919,-925.14,-9948.4
4.692,-925.86,-9946.3
4.692,-926.69,-9977.7
4.6911,-920.12,-9984.4
4.691,-933.69,-9968.8
4.691,-934.21,-9978
4.691,-944.86,-9975.6
4.691,-939.97,-9996.1
4.6901,-941.28,-10005
4.6909,-943.27,-9985
4.691,-950.33,-10000
4.691,-946.94,-10042
4.691,-945.68,-10065
4.691,-942.68,-10046
4.691,-958.46,-10012
4.6901,-943.28,-10002
4.69,-951.2,-9981.9
4.69,-950.14,-9961.5
4.69,-958.42,-9970.8
4.69,-963.63,-9975.1
4.69,-963.34,-9987
4.69,-961.51,-9993.9
4.69,-971.4,-9979.3
4.6909,-974.11,-9997.2
4.6901,-969.59,-10005
4.69,-976.61,-9998.2
4.6891,-978.83,-10002
4.6899,-977.02,-10026
4.6891,-988.1,-9995.1
4.689,-978.44,-9981.4
4.689,-977.75,-9968.2
4.6899,-973.52,-9972.8
4.69,-968.21,-9968
4.6891,-973.43,-9980.7
4.689,-971.67,-9986.5
4.689,-974.56,-10015
4.689,-972.2,-10024
4.6881,-971.11,-9977.1
4.6889,-965.3,-9955.8
4.689,-969.1,-9956.9
4.6881,-974.51,-9952.5
4.688,-984.28,-9945.9
4.6889,-987.84,-9948.2
4.689,-992.89,-9952.9
4.689,-989.46,-9953.5
4.6881,-985.45,-9962.3
4.688,-987.68,-9957.3
4.688,-984.27,-9966.8
4.6871,-988.42,-9985.2
4.687,-991.12,-9978.9
4.687,-995.88,-9988.1
4.6879,-992.42,-9982.8
4.688,-990.18,-9990.5
4.688,-985.01,-10019
4.688,-983.51,-10037
4.688,-984.02,-10034
4.6871,-984.56,-10012
4.687,-981.21,-9991.6
4.687,-984.45,-9976.4
4.687,-987.51,-9973.9
4.687,-986.43,-9966.1
4.687,-985.26,-9940
4.6861,-982.05,-9947.4
4.6869,-977.27,-9950.4
4.687,-974.38,-9949.7
4.687,-978.35,-9944.9
4.687,-982.24,-9960.1
4.6861,-982.94,-10002
4.686,-997.23,-10019
4.686,-997.59,-10054
4.686,-1003.9,-10068
4.686,-1003,-10040
4.686,-1003.3,-10033
4.686,-1003.7,-10047
4.6869,-989.52,-10049
4.6861,-987.67,-10044
4.6851,-986.99,-10059
4.6859,-990.99,-10013
4.6851,-987.36,-9942.7
4.685,-976.38,-9928.3
4.685,-981.24,-9919.4
4.685,-983.84,-9925.3
4.685,-987.99,-9967.1
4.6859,-984.63,-9982.7
4.6851,-979.88,-10025
4.685,-990.02,-10035
4.685,-983.68,-10003
4.685,-985.91,-9976.8
4.685,-991.34,-9972.3
4.6841,-981.26,-9955.9
4.684,-976.87,-9948.7
4.6849,-984.95,-9999.2
4.6841,-984.64,-10008
4.6849,-982.07,-9986.7
4.6841,-993.29,-9967
4.684,-990.92,-9973.1
4.684,-983.88,-10002
4.684,-991.42,-10015
4.6831,-987.64,-10024
4.683,-985.91,-10014
4.683,-990.52,-9973
4.683,-992.27,-9985.7
4.6839,-986.82,-9973.6
4.6831,-989.8,-9998.4
4.683,-979.09,-9987.1
4.683,-977.93,-9964.4
4.683,-976.23,-9948.8
4.683,-981.52,-9937.3
4.6821,-970.39,-9959.3
4.682,-983.68,-9986
4.6829,-987.19,-9993.4
4.683,-983.35,-10017
4.683,-982.43,-10017
4.6821,-978.62,-9971.7
4.682,-981.88,-9926.6
4.682,-979.68,-9915.5
4.682,-978.41,-9931.1
4.682,-982.47,-9921.8
4.682,-989.95,-9937.4
4.6811,-991.68,-9967
4.681,-992.04,-10017
4.681,-996.2,-10028
4.681,-984.58,-10053
4.681,-979.11,-10061
4.6818,-970.48,-10038
4.6811,-959.29,-10009
4.681,-948.16,-9973.8
4.681,-948.4,-9987.3
4.6802,-934.76,-9974.2
4.6809,-919.92,-9961.9
4.6802,-909.04,-10005
4.68,-916.02,-9978.4
4.68,-919.08,-9943.7
4.68,-916.87,-9934.8
4.6808,-922.02,-9913.5
4.6802,-931.19,-9928.2
4.68,-917.92,-9976.2
4.68,-916.6,-9971
4.68,-918.33,-9991.7
4.6792,-903.45,-10024
4.679,-860.51,-10014
4.679,-841.04,-9978.2
4.679,-828.49,-9962.6
4.679,-816.41,-9941
4.6798,-804.96,-9928.7
4.68,-795.5,-9948.5
4.68,-792.24,-9990.8
4.6792,-799.11,-9988.2
4.6798,-817.81,-9968
4.6792,-837.49,-9962.2
4.679,-837.52,-9951
4.6782,-862.45,-9924.8
4.678,-871.68,-9924.4
4.678,-901.16,-9942.4
4.678,-896.55,-9967.1
4.6788,-891.64,-9997.1
4.679,-897.12,-10025
4.679,-907.31,-10033
4.6782,-921.67,-10009
4.6772,-941.8,-9991.7
4.6778,-956.96,-9939.4
4.6772,-961.01,-9901.9
4.6778,-962.35,-9893.8
4.678,-963.61,-9916.4
4.678,-961.99,-9972.2
4.6772,-972,-10017
4.6778,-979.15,-10014
4.6772,-981.81,-10001
4.677,-981.58,-9978.3
4.677,-995.96,-9951.5
4.677,-998.6,-9894.4
4.6762,-994.52,-9884.2
4.676,-1008.3,-9900.5
4.6768,-999.88,-9911.2
4.6762,-1006,-9921.2
4.6768,-1003.3,-9965
4.6762,-1000.7,-9984.2
4.676,-1005.8,-9991.2
4.676,-1003.9,-9980.4
4.676,-1016.5,-9969
4.676,-1021.6,-9986.6
4.6752,-1027.5,-9992.9
4.6758,-1029.7,-9989.7
4.676,-1030.3,-9960.8
4.6752,-1026.3,-9956
4.6758,-1025.6,-9968.6
4.676,-1033.9,-9940.7
4.6752,-1029,-9937.3
4.675,-1032.3,-9933.3
4.675,-1029.6,-9943.5
4.675,-1038.6,-9920.1
4.6742,-1049.1,-9904.2
4.674,-1040.6,-9942.9
4.674,-1041.1,-9959.7
4.674,-1031.2,-9963.7
4.6748,-1040.8,-9973.7
4.675,-1020.7,-9950.7
4.675,-1020.3,-9949.6
4.6742,-1020.2,-9953.6
4.674,-1024.8,-9971.1
4.6732,-1027.4,-9968.8
4.6738,-1027.1,-9942
4.6732,-1031.3,-9952.4
4.673,-1036.9,-9987.9
4.673,-1029.8,-10010
4.6738,-1031.3,-10009
4.6732,-1037.2,-9999.2
4.673,-1020.4,-9970.2
4.673,-1021.5,-9924.9
4.6722,-1028.6,-9944.3
4.6728,-1027.4,-9963
4.6722,-1028.8,-9977.4
4.672,-1028.4,-9959.9
4.672,-1032.6,-9944.5
4.672,-1033.6,-9936
4.672,-1019.5,-9936.7
4.672,-1028.9,-9926.9
4.672,-1047.2,-9931.7
4.672,-1057,-9938.8
4.672,-1075.1,-9957.2
4.672,-1094.3,-9994.1
4.672,-1079.7,-9996.3
4.6712,-1014.8,-10015
4.671,-919.88,-9996.5
4.671,-889.98,-9941.3
4.6718,-849.1,-9936
4.6712,-750.55,-9934.3
4.671,-670.8,-9926.3
4.671,-587.45,-9926.4
4.671,-469.1,-9940
4.671,-326.96,-9957
4.671,-163.31,-9985.1
4.6702,47.242,-10020
4.67,314.82,-10034
4.67,600.28,-10054
4.67,788.68,-10074
4.6708,823.37,-10052
4.671,679.94,-10007
4.6702,372.4,-9956.4
4.67,86.499,-9892.8
4.67,-268.54,-9870
4.6692,-526.77,-9857.5
4.669,-688.91,-9873
4.669,-848.26,-9875.6
4.6698,-996.3,-9882.5
4.6692,-1117.3,-9877.3
4.669,-1210.3,-9886.9
4.6698,-1292.5,-9915.2
4.6692,-1301.8,-9933.6
4.669,-1234.4,-9934.9
4.669,-1155.1,-9935.9
4.669,-1076.6,-9952.9
4.669,-1012.6,-9968.9
4.6682,-967.28,-9971.5
4.6688,-944.73,-9975.6
4.6682,-917.64,-9980.6
4.668,-914.28,-9968.1
4.668,-908.89,-9999.4
4.668,-919.87,-10006
4.6672,-931.45,-9987.9
4.6678,-940.85,-9947.3
4.6672,-934.67,-9903.9
4.667,-938.09,-9887.5
4.667,-930.24,-9877.1
4.667,-929.29,-9899
4.667,-929.51,-9937.9
4.667,-921.78,-9969.4
4.667,-925.54,-10008
4.667,-920.52,-10021
4.667,-923.5,-10013
4.6662,-915.22,-9974.2
4.6668,-912.88,-9975.2
4.6662,-926.35,-9956.7
4.6652,-920.08,-9933.7
4.6658,-912.81,-9914.8
4.666,-911.73,-9896.5
4.6652,-913.09,-9891.1
4.6658,-913.08,-9903.8
4.666,-909.25,-9909.4
4.666,-901.35,-9917.5
4.666,-906.77,-9925
4.6652,-901.72,-9930.7
4.6658,-902.36,-9953.9
4.666,-903.24,-9966.1
4.6652,-898.34,-9987.4
4.665,-895.72,-9989.7
4.665,-893.84,-9997.5
4.665,-886.29,-9981.4
4.6642,-885.04,-9979.6
4.6648,-869.73,-9962.5
4.665,-863.65,-9962.8
4.6642,-865.24,-9959.7
4.6648,-865.21,-10003
4.665,-861.52,-10023
4.6642,-865.26,-10005
4.664,-859.9,-9987
4.664,-864.36,-9950.9
4.6632,-858.22,-9924.1
4.6638,-852.86,-9909.4
4.664,-853.34,-9977.2
4.6632,-831.76,-10022
4.663,-820.54,-10033
4.663,-819.54,-10018
4.663,-824,-9969.5
4.663,-819.41,-9924.4
4.663,-814.1,-9886.6
4.663,-802.3,-9889.7
4.6622,-802.19,-9900.5
4.6628,-795.79,-9967.8
4.663,-796.31,-10026
4.6622,-784.73,-10012
4.662,-777.02,-10020
4.662,-769.66,-10009
4.662,-763.68,-9967.7
4.662,-753.33,-9947.4
4.662,-756.99,-9966.9
4.662,-746.18,-9977.4
4.662,-737.04,-9967
4.662,-732.26,-9954.6
4.662,-729.5,-9920.8
4.662,-712.1,-9914.6
4.662,-701.69,-9945.8
4.6612,-699.43,-9993.6
4.6618,-695.49,-9998.6
4.6612,-689.93,-9992.7
4.661,-676.4,-9965.2
4.661,-670.28,-9912.7
4.661,-658.76,-9871.8
4.661,-646.35,-9900.2
4.661,-642.6,-9930.1
4.661,-632.73,-9933.5
4.661,-610.18,-9955.7
4.6602,-594.76,-9966.7
4.6608,-590.94,-9955.1
4.6602,-581.17,-9947.6
4.6608,-574.07,-9961.8
4.6602,-562.74,-9937.2
4.66,-553.38,-9980.9
4.6608,-541.46,-10002
4.661,-537.66,-9993.9
4.6602,-530.56,-9962.8
4.66,-511.41,-9952.3
4.6608,-499.06,-9956
4.6602,-492.12,-9955.9
4.66,-489.09,-10013
4.6592,-483.14,-10093
4.659,-480.56,-10100
4.659,-476.01,-10082
4.6598,-471.22,-10017
4.66,-469.82,-9903.9
4.66,-461.53,-9868.3
4.66,-456.09,-9866.6
4.6592,-448.91,-9888.9
4.659,-441.95,-9951.7
4.659,-432.96,-9980.6
4.659,-428.52,-9992.8
4.659,-429.25,-10008
4.659,-420.6,-10060
4.659,-419.61,-10073
4.659,-424.67,-10042
4.659,-425.34,-10007
4.659,-431.02,-9933.9
4.659,-440.27,-9894
4.6582,-453.84,-9872.5
4.658,-476.19,-9899.3
4.6588,-486.24,-9939.4
4.6582,-511.07,-9971.1
4.658,-530.11,-10007
4.658,-539.93,-10001
4.658,-555.44,-9974.5
4.6588,-572.12,-9961.2
4.6582,-597.47,-9937.8
4.658,-607.86,-9907.8
4.658,-631.9,-9927.1
4.658,-655.78,-9955.7
4.6572,-671.39,-9961.1
4.6578,-693.59,-9962.5
4.6572,-715.75,-9948.5
4.657,-726.47,-9960.9
4.6578,-742.53,-9976.6
4.658,-762.65,-10014
4.658,-771.15,-10031
4.6572,-790.73,-10009
4.657,-807.76,-9977.6
4.657,-814.61,-9977.5
4.657,-839.08,-9974.6
4.657,-850.24,-9951.9
4.6562,-871.66,-9913.6
4.6568,-888.36,-9880.9
4.657,-886.64,-9870
4.657,-891.46,-9886.6
4.657,-891.98,-9914.6
4.657,-897.91,-9935.9
4.6562,-904.83,-9963.9
4.656,-911.03,-9972.7
4.656,-923.81,-9983.2
4.656,-928.05,-9965.7
4.6568,-936.65,-9949.2
4.6562,-943.15,-9980.6
4.656,-939.27,-10002
4.656,-934.73,-10034
4.656,-938.5,-10024
4.656,-932.62,-10002
4.6552,-936.36,-9947.2
4.655,-942.65,-9898.5
4.655,-949.67,-9850.5
4.6542,-939.98,-9846.3
4.6548,-945.79,-9872
4.6558,-958.02,-9898.3
4.6552,-958.79,-9943
4.655,-954.06,-9954.3
4.655,-960.61,-9973.8
4.655,-957.8,-9992.5
4.655,-950.23,-9997
4.655,-952.85,-9977.6
4.6542,-954.63,-9947.7
4.654,-951.87,-9954.4
4.654,-952.11,-9955.1
4.654,-954.94,-9950.8
4.6548,-953.11,-9944
4.655,-948.67,-9950.1
4.655,-948.56,-9943.1
4.655,-949.08,-9946.5
4.6542,-943.21,-9955
4.654,-948.23,-10021
4.654,-947.73,-10062
4.6532,-950.05,-10102
4.653,-955.83,-10068
4.653,-945.42,-9991.8
4.653,-941.53,-9912.7
4.653,-941.96,-9843.8
4.653,-944.7,-9837.2
4.6538,-952.01,-9843.3
4.6532,-948.34,-9906.3
4.653,-952.88,-9953.5
4.653,-953.94,-9956.9
4.653,-954.04,-9953.1
4.653,-956.17,-9946.1
4.6522,-962.84,-9944.6
4.652,-973.02,-9912.4
4.652,-969.06,-9921
4.6528,-968.46,-9953.6
4.6522,-964.44,-9933
4.652,-966.3,-9925.7
4.652,-964.67,-9917.9
4.6528,-964.33,-9939.8
4.6522,-953.25,-9967.6
4.652,-950.62,-10010
4.652,-954.17,-10036
4.6512,-956.09,-10020
4.6518,-955.96,-10005
4.652,-956.16,-9948.1
4.652,-954.1,-9911.3
4.652,-957.72,-9895.6
4.652,-964.99,-9864.1
4.652,-972.51,-9874.6
4.6512,-973.42,-9890.5
4.6518,-978.95,-9914
4.6512,-966.53,-9953.7
4.651,-976.87,-9977.6
4.651,-977.98,-9976.5
4.651,-980.27,-9949.1
4.651,-983.1,-9913.8
4.651,-978.11,-9895.6
4.651,-991.08,-9881.1
4.651,-997.34,-9894.5
4.6502,-1000.2,-9906.5
4.65,-1002.1,-9901.4
4.65,-1009.4,-9919.1
4.65,-1006.1,-9929.2
4.6508,-1006.3,-9933.1
4.651,-1003.2,-9936.8
4.651,-997.65,-9930.7
4.651,-1001.4,-9921.3
4.651,-998.61,-9927.1
4.6502,-1001.1,-9947.5
4.65,-1004.6,-9971
4.6492,-1009.4,-9979.5
4.6498,-1010,-9972.1
4.6492,-1007.7,-9958.9
4.649,-1005.7,-9948.4
4.6498,-1004.9,-9933.8
4.65,-999.38,-9931.4
4.65,-1001.5,-9927.2
4.65,-997.03,-9974
4.6492,-1008.4,-9997.9
4.649,-1007.2,-10022
4.649,-1011.6,-10054
4.6482,-1018,-10046
4.648,-1013.5,-9974.1
4.6488,-1014.4,-9934.8
4.649,-1014.7,-9909.5
4.649,-1017.9,-9911
4.6482,-1014.6,-9957.9
4.648,-1015.6,-9970.9
4.6488,-1020,-9967.6
4.6482,-1028.8,-9932.7
4.648,-1031.7,-9931.1
4.648,-1037.3,-9915.9
4.648,-1037.6,-9922.1
4.648,-1038.8,-9959
4.648,-1039.9,-9935.1
4.648,-1041.8,-9913.6
4.648,-1035.7,-9894.2
4.648,-1030.5,-9884.3
4.648,-1034.4,-9878.8
4.6472,-1037.9,-9891.3
4.647,-1042.9,-9916.2
4.647,-1050.1,-9927.2
4.6462,-1044.4,-9931.6
4.6468,-1045.8,-9939.5
4.6462,-1049.3,-9957
4.6468,-1042,-9967.7
4.647,-1042.1,-9965.4
4.647,-1047.5,-9959.1
4.647,-1048.5,-9947.7
4.647,-1050.7,-9937.3
4.647,-1052,-9925.8
4.6462,-1050.5,-9944.6
4.646,-1052.7,-9969.2
4.6468,-1059.6,-10007
4.647,-1072.1,-9999.5
4.6462,-1072.2,-9970.9
4.646,-1079.7,-9937.6
4.6468,-1069.9,-9914.1
4.6462,-1065.8,-9906.3
4.6452,-1065.9,-9905.9
4.6458,-1064.7,-9910.6
4.6452,-1071.4,-9937.2
4.645,-1064.3,-9935.2
4.645,-1062.9,-9926.2
4.645,-1071.7,-9945.6
4.6458,-1069.8,-9950.4
4.646,-1063.4,-9955
4.6452,-1058.7,-9939.6
4.645,-1056.4,-9969.6
4.645,-1063.8,-9995.7
4.645,-1070.8,-9969.2
4.645,-1070.9,-9942
4.645,-1071.7,-9926
4.645,-1081.3,-9918.2
4.6442,-1087.7,-9889
4.644,-1087.5,-9901.5
4.6448,-1081.7,-9933.6
4.645,-1073.8,-9923.6
4.6442,-1070.6,-9913.8
4.644,-1069.3,-9907.2
4.644,-1073.7,-9922.4
4.644,-1083.5,-9922.3
4.6432,-1077.1,-9920.8
4.643,-1076.4,-9929.8
4.643,-1077.8,-9929.5
4.643,-1080.6,-9931.9
4.643,-1072,-9939.2
4.6438,-1072.6,-9937.9
4.644,-1071.4,-9928.6
4.6432,-1076.7,-9939
4.6438,-1072.1,-9948.1
4.6432,-1086.5,-9950
4.643,-1094.4,-9954.8
4.6422,-1091,-9987
4.642,-1093.5,-9983.7
4.6428,-1086.6,-9962.3
4.643,-1079.2,-9933.2
4.643,-1087.2,-9911
4.643,-1090.5,-9911.1
4.643,-1086.5,-9936.8
4.643,-1088.2,-9932.5
4.6422,-1099.7,-9939.1
4.642,-1099.3,-9966.1
4.6412,-1098.6,-9956.1
4.6418,-1098.6,-9915
4.642,-1102.1,-9914.2
4.642,-1102,-9918.4
4.642,-1096.7,-9902.2
4.642,-1098.5,-9903.1
4.6412,-1087.7,-9927.3
4.6418,-1088.2,-9936.8
4.6412,-1101.2,-9932.5
4.641,-1097.9,-9939.6
4.641,-1093.2,-9951.1
4.6402,-1098.5,-9947.8
4.6408,-1101.1,-9939.8
4.641,-1099,-9933.9
4.641,-1091.7,-9937.5
4.6402,-1091.4,-9924.5
4.6408,-1080.5,-9921.1
4.641,-1090.1,-9949
4.6402,-1091.7,-9949.6
4.64,-1098.8,-9978.2
4.64,-1094.3,-10017
4.64,-1097.1,-10062
4.64,-1104.6,-10098
4.6391,-1103.8,-10051
4.6399,-1098.3,-9973.5
4.64,-1100.7,-9878.5
4.6391,-1105.5,-9839.5
4.639,-1108.3,-9806.4
4.639,-1108.4,-9824.7
4.639,-1097.3,-9857.7
4.639,-1097.6,-9893.6
4.639,-1098.7,-9911
4.639,-1092.8,-9935.1
4.639,-1104.3,-9946.9
4.639,-1098.2,-9942.2
4.6382,-1101.4,-9935.8
4.6388,-1103.5,-9941.3
4.639,-1097.1,-9935.5
4.6382,-1100.1,-9929.3
4.638,-1100.4,-9918.3
4.6372,-1099.5,-9926.2
4.6379,-1104.1,-9920.8
4.6372,-1108.7,-9960.6
4.6379,-1109.7,-9980.4
4.638,-1109.2,-9984.8
4.638,-1125,-9983.7
4.638,-1112.5,-9965.6
4.6372,-1125,-9940.7
4.637,-1120.1,-9921.6
4.6379,-1128.4,-9915.4
4.6372,-1136.8,-9926.7
4.637,-1126.2,-9929.3
4.637,-1126.8,-9933.2
4.637,-1109.6,-9922.4
4.6361,-1115,-9892.6
4.6368,-1107.3,-9879.6
4.637,-1098.4,-9875.9
4.637,-1099,-9888.8
4.637,-1096.2,-9909.3
4.6361,-1086.3,-9937.7
4.636,-1083.3,-9954.5
4.636,-1085.4,-9970.5
4.636,-1067,-9977
4.636,-1066.4,-10026
4.636,-1068.3,-10006
4.636,-1059,-9991.3
4.636,-1063.9,-10001
4.636,-1067.2,-9981.5
4.6352,-1065.5,-9934.9
4.635,-1067.7,-9885.2
4.635,-1059.7,-9869.4
4.635,-1039.7,-9843.2
4.635,-1017.5,-9865.1
4.635,-1011.6,-9883.1
4.635,-996.43,-9881.2
4.6342,-976.46,-9906.6
4.6349,-967.37,-9904.4
4.635,-951.67,-9897
4.635,-944.35,-9916.5
4.635,-948.53,-9919.2
4.6342,-952.07,-9916.5
4.634,-955.62,-9917.2
4.634,-967.95,-9919.1
4.634,-975.1,-9930.5
4.634,-979.31,-9930.2
4.634,-996.58,-9928.9
4.6349,-1000.5,-9930.8
4.6342,-1018,-9909.5
4.634,-1020.8,-9915.3
4.634,-1036.9,-9912.3
4.6331,-1062.8,-9907.3
4.633,-1082.7,-9901.1
4.633,-1098.9,-9895.9
4.633,-1105.8,-9902.8
4.633,-1105.3,-9905.4
4.633,-1102,-9928.1
4.633,-1113.7,-9936.3
4.6338,-1129.3,-9944.8
4.6331,-1137.1,-9927.4
4.6321,-1141.7,-9919.9
4.632,-1135.6,-9893.4
4.632,-1132,-9925.1
4.632,-1131.8,-9975.8
4.6329,-1125.8,-9987.3
4.6321,-1146.7,-9976.1
4.6311,-1149,-9938.4
4.6319,-1129.5,-9889.5
4.632,-1141.5,-9869.3
4.632,-1149,-9864
4.632,-1140.3,-9857.6
4.632,-1145.1,-9857.8
4.632,-1162.1,-9876.6
4.6311,-1162.8,-9870.6
4.631,-1145.1,-9872.4
4.631,-1146.1,-9870.5
4.631,-1149.7,-9892.3
4.6319,-1145.8,-9896.8
4.6311,-1138.1,-9892
4.631,-1158.6,-9883.6
4.631,-1159.1,-9897.1
4.631,-1149.1,-9905.2
4.631,-1174.9,-9905.6
4.6301,-1128.2,-9901.8
4.63,-1141.3,-9892.5
4.63,-1155,-9888.8
4.63,-1161.6,-9885.5
4.6309,-1165.6,-9883
4.6301,-1164.4,-9875.9
4.63,-1161.6,-9864.2
4.63,-1150.5,-9868.4
4.6291,-1168.6,-9886.6
4.629,-1165,-9899.9
4.6299,-1159.5,-9916.8
4.6291,-1153.4,-9922.6
4.629,-1156.8,-9915.9
4.629,-1164.1,-9911.8
4.629,-1161.3,-9891.3
4.6299,-1152.6,-9877.6
4.63,-1159.7,-9874.5
4.6291,-1150.6,-9880.9
4.629,-1145.9,-9893
4.629,-1154.6,-9908.5
4.629,-1146.6,-9917.2
4.629,-1144,-9918.6
4.629,-1143.1,-9918.4
4.629,-1148.2,-9928.8
4.6281,-1139.2,-9915.7
4.6289,-1144.6,-9892.5
4.6281,-1157.2,-9859.3
4.6289,-1162.2,-9853
4.629,-1178.6,-9879.5
4.6281,-1192.3,-9892.8
4.628,-1225.4,-9891
4.628,-1225.5,-9907
4.628,-1206.7,-9888.4
4.628,-1124.6,-9871.6
4.628,-1053.5,-9866.4
4.628,-1038.8,-9857.4
4.628,-945.65,-9904.2
4.628,-829.45,-9959.4
4.628,-762.46,-9963.1
4.6271,-650.95,-9957.6
4.627,-501.32,-9923.6
4.627,-343.83,-9916.8
4.627,-155.71,-9892.1
4.6261,67.165,-9892
4.6269,356.39,-9906.6
4.627,612.77,-9891.5
4.627,743.43,-9863.4
4.627,724.07,-9832.3
4.627,532.82,-9813.2
4.6261,175.95,-9824.8
4.6269,-67.608,-9844.4
4.627,-414.95,-9843.6
4.6261,-648.7,-9828.8
4.626,-828.08,-9800.9
4.6269,-1012.1,-9784.4
4.627,-1159.5,-9767.9
4.6261,-1278.8,-9772.2
4.626,-1365.2,-9772.9
4.626,-1442,-9790
4.626,-1441.1,-9829
4.6251,-1377,-9840.4
4.625,-1295.7,-9859.3
4.625,-1234.4,-9866.7
4.625,-1152.6,-9869.6
4.625,-1118.2,-9873.1
4.625,-1084.2,-9859.6
4.625,-1065.6,-9860.4
4.6259,-1036.2,-9852.1
4.6251,-1029.2,-9857.3
4.625,-1026.7,-9889.7
4.625,-1039.7,-9874.6
4.625,-1052.3,-9903.8
4.6241,-1056.6,-9891.5
4.624,-1057.6,-9869.8
4.6249,-1066.5,-9861
4.6241,-1069.9,-9852.9
4.624,-1061.5,-9827.7
4.6249,-1086.1,-9805.4
4.625,-1070.7,-9831.8
4.625,-1071.8,-9845.4
4.6241,-1070.1,-9887.4
4.6249,-1058,-9948
4.6241,-1052.3,-9944.7
4.624,-1054.3,-9925.3
4.624,-1053.1,-9886.8
4.624,-1061.9,-9833.7
4.624,-1060.2,-9791.1
4.624,-1057.5,-9781.7
4.624,-1058.6,-9795.5
4.624,-1069.9,-9819.2
4.6231,-1058,-9842
4.623,-1033.8,-9856.6
4.6239,-1049,-9855.2
4.6231,-1044,-9850.8
4.6239,-1052.3,-9850.9
4.6231,-1046.5,-9866.1
4.6239,-1046,-9891.9
4.624,-1056.6,-9901.5
4.624,-1021.6,-9898.4
4.6223,-1013.7,-9886.9
4.6229,-1023.1,-9843.7
4.623,-999.09,-9818.9
4.6221,-1002.3,-9825.5
4.6229,-1006.2,-9831.4
4.6221,-987.82,-9874.4
4.622,-996.62,-9926.4
4.6229,-984.26,-9941.2
4.6221,-992.73,-9930.8
4.622,-996.35,-9909.7
4.6229,-997.49,-9860.3
4.623,-976.78,-9806.8
4.6221,-974.94,-9740.4
4.622,-1000.6,-9731
4.622,-983.14,-9757
4.622,-969.67,-9801.6
4.622,-957.36,-9844.8
4.622,-934.51,-9912.9
4.6211,-950.14,-9950.4
4.6219,-931.56,-9939.5
4.622,-913.83,-9922.9
4.6211,-919.85,-9895.7
4.621,-925.21,-9835.1
4.6219,-912.39,-9775.8
4.6211,-904.56,-9796.9
4.621,-916.12,-9835.3
4.621,-904.6,-9824.9
4.621,-898.1,-9837.6
4.621,-892.81,-9879.2
4.6219,-871.55,-9894.7
4.6211,-868.92,-9903.5
4.621,-860.08,-9892.8
4.621,-863.75,-9855.6
4.621,-849.92,-9842
4.621,-850.52,-9851
4.6201,-844.22,-9863
4.62,-837.39,-9861.4
4.6209,-822.46,-9865.6
4.6201,-803.84,-9888.4
4.62,-802.5,-9892
4.62,-793.9,-9871.8
4.62,-791.29,-9866.3
4.62,-792.29,-9842.5
4.62,-763.28,-9822.4
4.62,-768.31,-9825
4.6191,-762.07,-9852.9
4.6199,-761.46,-9863.7
4.6191,-736.53,-9876
4.619,-730.42,-9893.6
4.6199,-715.05,-9903.4
4.62,-702.7,-9878.9
4.6191,-698.12,-9853.6
4.6199,-673.55,-9845.5
4.6191,-669.71,-9822.1
4.619,-659.07,-9845.9
4.619,-647.59,-9842.4
4.619,-659.05,-9839.2
4.619,-683.5,-9816.9
4.619,-642.97,-9876.1
4.619,-633.63,-9913
4.619,-621.61,-9993
4.6199,-626.21,-10031
4.6191,-599.51,-10002
4.619,-597.91,-9957
4.619,-607.12,-9895.5
4.619,-602.8,-9828.8
4.6181,-591.25,-9749.6
4.618,-591.2,-9757
4.6189,-611.37,-9772.6
4.6181,-607.23,-9853.5
4.618,-606.96,-9895.4
4.6189,-587.55,-9882
4.619,-576.88,-9914
4.619,-601.72,-9893.8
4.6181,-621.42,-9848
4.618,-633.64,-9801.8
4.618,-656.58,-9808.5
4.618,-661.69,-9816
4.618,-690.52,-9805.2
4.618,-682.22,-9814.5
4.618,-700.39,-9874
4.618,-714.31,-9948.5
4.618,-758.15,-9940.7
4.618,-733.63,-9918.6
4.618,-766.11,-9875.2
4.6171,-799.57,-9832.9
4.617,-832.19,-9798.3
4.617,-843.86,-9778.2
4.617,-864.88,-9767.1
4.617,-852.17,-9809
4.617,-866.65,-9814.3
4.617,-885.88,-9807.4
4.617,-921.02,-9827.8
4.617,-929.47,-9843.9
4.617,-942.34,-9854.7
4.617,-978.78,-9845.1
4.617,-957.62,-9847
4.617,-987.02,-9858.4
4.617,-1008.8,-9848.4
4.617,-1038.2,-9852.1
4.617,-1057.5,-9869
4.617,-1042.9,-9870.1
4.617,-1063.8,-9845.4
4.617,-1056.5,-9866.1
4.617,-1069.8,-9867.3
4.6161,-1073.8,-9854.2
4.616,-1061,-9838
4.616,-1067,-9842.4
4.616,-1082.2,-9838.5
4.616,-1098.8,-9814.9
4.616,-1116,-9808.3
4.616,-1115.9,-9845.2
4.616,-1107.9,-9872.8
4.6169,-1099.3,-9875.8
4.617,-1105.7,-9879
4.6161,-1101.4,-9910.4
4.616,-1119.2,-9906.8
4.616,-1126.5,-9952.4
4.616,-1123.3,-9991.3
4.616,-1115.9,-9971.6
4.616,-1109.3,-9902.9
4.616,-1110.1,-9838.1
4.6151,-1102.8,-9787.7
4.6159,-1115,-9753.9
4.6151,-1130.7,-9732.4
4.615,-1133.2,-9733.7
4.615,-1116.8,-9765.4
4.6141,-1120.2,-9791.7
4.6149,-1114.1,-9809.3
4.615,-1119.2,-9817.4
4.615,-1098,-9793.6
4.615,-1123.7,-9824.2
4.615,-1128.2,-9848.9
4.615,-1103,-9801.2
4.615,-1108.6,-9826.9
4.6141,-1097.2,-9840.6
4.614,-1101.5,-9869.3
4.614,-1118,-9875.2
4.6149,-1102.1,-9865.6
4.615,-1104.9,-9851.6
4.6141,-1118.6,-9846
4.6149,-1114.5,-9843
4.615,-1099.4,-9867.4
4.6141,-1091.9,-9854.4
4.614,-1092.5,-9846.7
4.614,-1091.5,-9832.8
4.6149,-1091.8,-9791.7
4.6141,-1119.1,-9787.2
4.614,-1094.9,-9757.9
4.614,-1108.5,-9782.3
4.614,-1096.2,-9793.2
4.614,-1088.2,-9808.3
4.614,-1121.9,-9844.6
4.614,-1096,-9869.5
4.614,-1089.1,-9880.2
4.6131,-1087.3,-9874.2
4.613,-1089.3,-9832.5
4.613,-1080,-9817.8
4.613,-1094,-9869.1
4.613,-1096.4,-9885.7
4.613,-1068.7,-9891.4
4.613,-1103.4,-9863.6
4.6139,-1089.6,-9832.6
4.6131,-1090,-9834
4.6139,-1129.9,-9853.5
4.6131,-1106.4,-9872.6
4.613,-1104.8,-9899
4.613,-1081.4,-9901.5
4.6121,-1094.2,-9881.7
4.612,-1098.4,-9850.7
4.6129,-1118.1,-9811.3
4.613,-1124.2,-9798.3
4.613,-1086.9,-9835.3
4.613,-1077.3,-9829.1
4.613,-1084.4,-9815.1
4.6121,-1106.7,-9788.7
4.612,-1078.1,-9818.5
4.612,-1103.7,-9843.2
4.612,-1111.7,-9836
4.612,-1115.3,-9883.9
4.612,-1124.8,-9917
4.612,-1111.5,-9919.1
4.612,-1081.2,-9881.5
4.612,-1093.1,-9880.9
4.612,-1107.9,-9872.9
4.612,-1087.7,-9806
4.6111,-1083.7,-9789.7
4.611,-1105.5,-9822.3
4.611,-1109.6,-9837.1
4.6101,-1106.4,-9852.3
4.6109,-1117.2,-9850.5
4.611,-1136.6,-9840
4.611,-1124.8,-9806.9
4.611,-1118.6,-9798.9
4.6119,-1138.9,-9799.7
4.6111,-1102.6,-9806.6
4.611,-1092.5,-9831.1
4.611,-1113.5,-9871
4.6101,-1101.7,-9872.9
4.61,-1132.2,-9861.9
4.61,-1089.4,-9838.6
4.6109,-1108.1,-9827.2
4.6101,-1087.2,-9824.2
4.61,-1112.4,-9780.1
4.61,-1107.7,-9819.7
4.61,-1126,-9840
4.61,-1130.3,-9828.7
4.61,-1142.3,-9839.6
4.61,-1160.3,-9841.6
4.6091,-1142.5,-9840.3
4.6099,-1134.6,-9866
4.6091,-1154.6,-9869.3
4.6099,-1143.5,-9861.5
4.61,-1164.6,-9847.8
4.61,-1156.7,-9834.4
4.61,-1133.4,-9824.3
4.61,-1119.6,-9843.8
4.6091,-1164.4,-9838.7
4.609,-1144.9,-9839.1
4.6099,-1144.3,-9852.6
4.6091,-1132.8,-9836.7
4.609,-1151.1,-9817.4
4.609,-1152.9,-9829.4
4.609,-1170.7,-9827.7
4.609,-1128.5,-9844.1
4.609,-1172,-9855.9
4.609,-1149.2,-9870.2
4.609,-1157.9,-9869.5
4.609,-1152.8,-9863.5
4.609,-1136.8,-9836
4.6081,-1159.9,-9845.8
4.608,-1121.6,-9836.3
4.608,-1144.1,-9918.5
4.608,-1173.4,-9930.7
4.6089,-1142.2,-9913
4.6081,-1147.8,-9881.6
4.608,-1148.3,-9841.6
4.608,-1128.4,-9821.8
4.608,-1137.3,-9824.1
4.608,-1151.5,-9815.6
4.608,-1131.4,-9865
4.608,-1126.1,-9876
4.608,-1150.4,-9890.5
4.608,-1163.3,-9897.3
4.608,-1160.8,-9916.7
4.608,-1164.4,-9889.7
4.608,-1153.3,-9879.2
4.6071,-1139.5,-9848.8
4.6079,-1147.3,-9827
4.6071,-1149.7,-9821.6
4.6079,-1172.8,-9823.7
4.6071,-1187.5,-9836.4
4.607,-1200.6,-9839.9
4.607,-1181.3,-9838
4.6079,-1149.1,-9863.6
4.6071,-1134.4,-9885.1
4.6079,-1124,-9888
4.608,-1120.9,-9880
4.6071,-1138.3,-9903.3
4.607,-1159.7,-9885.4
4.607,-1172.4,-9869
4.607,-1156.4,-9877.6
4.607,-1185.7,-9897.5
4.607,-1182.7,-9866.4
4.607,-1184.3,-9830.8
4.607,-1155.9,-9833.5
4.607,-1123.4,-9807.8
4.6061,-1172.5,-9827.5
4.606,-1200.2,-9821.2
4.606,-1191.9,-9853.5
4.6069,-1191.9,-9864.8
4.6061,-1200,-9854.1
4.606,-1203.5,-9877.9
4.606,-1166.1,-9881.1
4.606,-1190.6,-9849.8
4.606,-1173.2,-9830.9
4.606,-1156.1,-9862.7
4.606,-1151.1,-9873.1
4.606,-1148.1,-9901.6
4.606,-1135.5,-9873.1
4.606,-1105.3,-9912
4.6051,-1101.4,-9870.7
4.605,-1138.2,-9833
4.6059,-1136.8,-9859.6
4.606,-1166.1,-9850.4
4.606,-1176.1,-9854
4.606,-1126.5,-9867.9
4.606,-1144.5,-9873.8
4.606,-1205.9,-9882.9
4.6051,-1201.8,-9905
4.605,-1206.8,-9882.4
4.605,-1198.6,-9878.5
4.605,-1189.6,-9890.9
4.605,-1192,-9889.8
4.605,-1194.8,-9868.5
4.605,-1125.8,-9885.8
4.605,-1114.6,-9883.4
4.605,-1114.1,-9882.2
4.605,-1095.6,-9879.1
4.605,-1088.3,-9897
4.6059,-1106.6,-9885.9
4.6051,-1144.2,-9881.2
4.605,-1170,-9860.3
4.6041,-1164.4,-9860
4.6049,-1128.3,-9853.7
4.605,-1164.4,-9859.2
4.605,-1098.1,-9908.9
4.6041,-1146.8,-9922.4
4.6049,-1072.1,-9921.1
4.605,-1037.1,-9925.5
4.6041,-1004.9,-9887.1
4.604,-1018.7,-9882
4.604,-1019.7,-9847.6
4.604,-1032.8,-9832.4
4.604,-1020.7,-9882.4
4.604,-1035.5,-9858.8
4.604,-1016.6,-9856.1
4.604,-1026.4,-9821.8
4.604,-1046,-9834.3
4.604,-1009.5,-9831.9
4.6031,-1042.8,-9864.8
4.6039,-1063.7,-9895.6
4.604,-1089.8,-9932
4.6031,-1060.1,-9972.3
4.6039,-1071.4,-10000
4.604,-1074.8,-9941
4.604,-1124.6,-9925
4.604,-1175.6,-9903.1
4.604,-1180.3,-9869
4.6031,-1178.8,-9861.8
4.6039,-1122.9,-9846.5
4.6031,-1151.6,-9837.2
4.603,-1188.2,-9834.2
4.6039,-1196.5,-9872.4
4.604,-1194.7,-9901.9
4.604,-1186.5,-9924
4.604,-1196.8,-9916.2
4.6031,-1210.7,-9898
4.6039,-1186.9,-9901.5
4.6031,-1180.8,-9874
4.603,-1229.6,-9873.5
4.603,-1240.5,-9872.5
4.603,-1238.2,-9844.9
4.6021,-1239.8,-9841.2
4.6029,-1209,-9861.6
4.603,-1193.8,-9831.9
4.603,-1168.3,-9811.7
4.6021,-1166.4,-9820.6
4.6029,-1174.1,-9861.6
4.6039,-1173.8,-9878.3
4.6031,-1222.8,-9899.4
4.603,-1213.5,-9928.3
4.6021,-1219.5,-9929.8
4.6029,-1215.2,-9948.8
4.603,-1237.1,-9911.1
4.6021,-1185,-9912.7
4.6029,-1217.2,-9901.2
4.603,-1174.5,-9884.2
4.6021,-1212.8,-9890.6
4.6029,-1191.4,-9896.9
4.603,-1250.1,-9899.7
4.6021,-1288.6,-9864.8
4.602,-1270.9,-9904.3
4.602,-1258.3,-9890.6
4.6011,-1244.4,-9888.7
4.6019,-1234.4,-9924.1
4.602,-1270.1,-9929.3
4.6011,-1303.7,-9967.7
4.6019,-1284.6,-9927.8
4.602,-1246.7,-9931
4.602,-1247.2,-9906.7
4.602,-1230.9,-9907
4.602,-1228.3,-9891.6
4.6011,-1251.3,-9885.9
4.6019,-1215.1,-9906.3
4.602,-1300.2,-9934.9
4.6011,-1214,-9933.6
4.6019,-1210.3,-9885.7
4.602,-1198.3,-9911.9
4.602,-1212.2,-9904.8
4.602,-1191.8,-9945.7
4.602,-1226.4,-9931.5
4.6011,-1197.6,-9891.1
4.601,-1238.2,-9856.2
4.601,-1200.8,-9805.3
4.601,-1206.6,-9792.5
4.6019,-1260,-9764
4.6011,-1300.9,-9825.3
4.6019,-1299,-9868.9
4.6011,-1324.4,-9853.3
4.6019,-1233,-9844
4.6011,-1154.1,-9905.7
4.601,-1150.9,-9941.7
4.601,-1033.5,-9976.4
4.601,-950.08,-9970.3
4.601,-840.63,-9974.7
4.601,-738.63,-9934.1
4.601,-606.63,-9928.8
4.6019,-477.85,-9882.2
4.6011,-275.15,-9865.4
4.601,-64.451,-9897.9
4.601,233.51,-9899.1
4.601,517.33,-9880.4
4.601,703.14,-9876.2
4.601,757.27,-9881.1
4.601,672.96,-9872.2
4.601,350.95,-9899.2
4.601,-73.347,-9891.3
4.601,-427.51,-9878.7
4.601,-759.88,-9832.5
4.6019,-876.17,-9896.1
4.602,-1098.3,-9898.2
4.602,-1215.9,-9946
4.6011,-1339.2,-9909.5
4.6001,-1493.9,-9869.6
4.6009,-1585.9,-9898.9
4.601,-1531.8,-9906
4.601,-1449.4,-9870.9
4.601,-1358.7,-9886.5
4.601,-1330.6,-9860.9
4.601,-1241,-9864.4
4.601,-1275.7,-9857.3
4.601,-1196.3,-9882.3
4.601,-1130.2,-9883.7
4.601,-1037.5,-9891.5
4.601,-1066.8,-9873.9
4.601,-1016.3,-9836.5
4.601,-1086,-9882
4.601,-1142.6,-9870.3
4.601,-1108.8,-9914.4
4.601,-1132.1,-9944.1
4.601,-1147.7,-10054
4.601,-1057,-10083
4.601,-1026.2,-10039
4.6001,-1013.8,-9992.9
4.6009,-1028,-9920.7
4.6001,-1076.4,-9806.9
4.6009,-1143.4,-9800.2
4.601,-1193.1,-9804
4.601,-1125.9,-9917.4
4.6019,-1067.4,-9892.1
4.602,-1077.4,-9872
4.6011,-1062.3,-9867.9
4.601,-1018.7,-9852.9
4.6001,-1070.8,-9878.4
4.6009,-1059.5,-9881.6
4.6001,-1028.4,-9913.3
4.6009,-1028.1,-9909.8
4.601,-1020.9,-9924.5
4.601,-1070.7,-9905.4
4.601,-1102.6,-9896.9
4.6001,-1085,-9920.6
4.6,-1075.6,-9896
4.6009,-1063.7,-9932.6
4.601,-1008.2,-9906.8
4.6001,-936.09,-9898.6
4.6,-960.11,-9889.9
4.6009,-1014.2,-9864.6
4.601,-991.75,-9838.6
4.6001,-980.31,-9857.5
4.6009,-1017,-9888.3
4.601,-984.32,-9926.9
4.6001,-1054.5,-9907
4.6,-1022.2,-9931
4.6,-960.85,-9930.9
4.6,-1089.6,-9961.5
4.6,-1000.4,-9981.4
4.6,-1014.5,-9962.2
4.6009,-964.54,-9955.4
4.601,-946.6,-9860.4
4.601,-933.43,-9824.1
4.601,-951.74,-9798.3
4.6001,-938.84,-9865.9
4.6009,-981.21,-9884.8
4.601,-960.11,-9912.3
4.6001,-997.61,-9885.3
4.6,-928.5,-9896.2
4.6,-924.94,-9954.4
4.601,-875.8,-9938.6
4.601,-846.77,-10019
4.601,-859.29,-9998.5
4.601,-881.5,-9966.6
4.6001,-902.61,-9948.1
4.601,-958.74,-9932
4.601,-987.27,-9892
4.601,-894.11,-9887.1
4.601,-845.29,-9895.2
4.601,-704.78,-9931.3
4.601,-786.42,-9919.2
4.601,-760.91,-9963.9
4.602,-806.23,-9964.5
4.601,-824.52,-9934.8
4.601,-818.64,-9934.6
4.601,-784.53,-9987.3
4.6001,-699.13,-9977.4
4.601,-642.68,-9889.2
4.601,-706.17,-9862.1
4.601,-696.42,-9892
4.601,-632.93,-9869.6
4.6001,-553.85,-9878.8
4.601,-691.45,-9901.1
4.6001,-665.1,-9910.4
4.601,-727.8,-9883
4.601,-698.6,-9914.8
4.601,-649.3,-9950.9
4.601,-599.41,-9988.1
4.6001,-616.17,-9969.3
4.601,-609.89,-9945.3
4.6001,-615.34,-9914.2
4.601,-668.45,-9872.1
4.601,-618.73,-9897.9
4.601,-646.54,-9892.6
4.601,-641.87,-9911.4
4.602,-543,-9857.2
4.601,-479.38,-9912.4
4.601,-387.34,-9945.1
4.6001,-446.91,-9940.2
4.6,-532.23,-9946.6
4.601,-582.39,-10000
4.601,-520.72,-9994
4.6001,-499.39,-9974.3
4.601,-426.56,-9987.6
4.601,-508.62,-9976.8
4.601,-477.82,-9957.4
4.601,-548.12,-9920
4.601,-384.72,-9912.9
4.601,-379.6,-9882.9
4.601,-426.56,-9881.3
4.602,-366.39,-9886.3
4.601,-468.86,-9928.9
4.601,-450.95,-9918.2
4.602,-516.41,-9966
4.602,-433.74,-9967.4
4.601,-435.79,-9923.4
4.602,-462.75,-9951.4
4.601,-592.45,-9937.8
4.601,-658.29,-9940.1
4.602,-658.48,-9931.5
4.602,-758.68,-9929.2
4.601,-743.84,-9932.1
4.602,-755.77,-9885.8
4.602,-944.24,-9847.7
4.602,-781.39,-9932.1
4.602,-791.57,-9887.7
4.602,-719.93,-9894.9
4.602,-643.21,-9882.7
4.602,-553.4,-9931.6
4.602,-517.67,-9908
4.602,-636.44,-9982.4
4.602,-857.17,-9973.1
4.602,-901.64,-9995.5
4.602,-876.54,-10018
4.602,-874.78,-9953.7
4.602,-962.87,-9906.6
4.603,-1058.8,-9943
4.602,-1084,-9918.4
4.603,-986.69,-9928.3
4.602,-896.47,-9945.9
4.602,-913.17,-9917.8
4.602,-912.76,-9950.5
4.602,-957.64,-9908.9
4.603,-942.06,-9960.6
4.603,-926.91,-9955.6
4.602,-972.69,-9994
4.602,-1039.3,-9977.7
4.603,-964.2,-9975.4
4.602,-971.86,-9950.6
4.602,-893.62,-9930.9
4.602,-817.84,-9954.7
4.603,-874.05,-9971.1
4.603,-830.41,-9985.2
4.603,-905.23,-9910
4.603,-1053.1,-9938
4.603,-1102.3,-9924.9
4.603,-1099.8,-9938.2
4.603,-1156,-9860.1
4.603,-1076.6,-9808.5
4.602,-1034.3,-9836.7
4.603,-939.97,-9912
4.602,-903.45,-9969.2
4.603,-1005.4,-9950.1
4.602,-963.94,-9982.6
4.603,-902.58,-9980
4.603,-864.27,-10043
4.603,-871.89,-9994.1
4.603,-891.22,-10051
4.603,-937.19,-9992.3
4.603,-974.05,-9924.1
4.603,-1019.9,-9915.6
4.602,-1032.1,-9952
4.603,-1056.7,-9945.1
4.603,-954.91,-10023
4.603,-894.79,-9973
4.603,-921.14,-9985.5
4.603,-735.36,-9987.6
4.603,-826.48,-9983.4
4.603,-869.06,-10016
4.603,-809.83,-9961.4
4.603,-754.77,-9988.8
4.603,-728.04,-10001
4.603,-784.66,-9922.7
4.603,-963.94,-9876.6
4.604,-1010.2,-9909.2
4.604,-1070.6,-9891.2
4.603,-1030.5,-9962.7
4.603,-1082.5,-9958.7
4.604,-980.06,-9885.5
4.604,-855.9,-9856.2
4.603,-881.92,-9896
4.604,-823.04,-9870.2
4.604,-836.46,-9932.3
4.604,-916.59,-9922.3
4.603,-805.7,-9804
4.604,-770.26,-9805.4
4.604,-867.59,-9947.5
4.604,-937.4,-9967.6
4.604,-888.17,-10038
4.603,-953.84,-10057
4.604,-970.95,-10030
4.603,-951.62,-9999.2
4.604,-816.47,-10020
4.603,-1090.9,-9969.7
4.604,-891.29,-9966.6
4.604,-734.79,-9976.5
4.604,-676.96,-10026
4.604,-707.46,-9993.4
4.603,-716.74,-9954.3
4.604,-912.9,-9992.8
4.603,-983.38,-9978.8
4.604,-831.73,-9978.8
4.604,-923.2,-9989.4
4.604,-1009.5,-9992.3
4.604,-975.51,-9973.5
4.604,-1070.2,-9930.7
4.604,-962.61,-9945.2
4.604,-853.2,-9957.4
4.604,-654.82,-9985.2
4.604,-776.83,-9943.3
4.604,-709.86,-9982.7
4.603,-769.11,-9956.6
4.604,-885.02,-9918
4.604,-952.63,-9990.1
4.604,-837.4,-9924.5
4.603,-787.31,-9952.5
4.604,-842.11,-9947.4
4.605,-1073.6,-9961.1
4.605,-1147.9,-9982.2
4.605,-1054.8,-9968.1
4.604,-892.42,-9911.8
4.605,-708.59,-9951.8
4.604,-815.52,-9958.2
4.605,-781.91,-9992.2
4.604,-967.1,-9992.8
4.605,-932.14,-9936.4
4.606,-876.16,-9939
4.605,-1049.4,-9915
4.606,-998.69,-9955.2
4.605,-948.06,-9918.4
4.606,-906.89,-9872
4.605,-875.14,-9953.3
4.605,-912.83,-9951.9
4.605,-819.24,-10001
4.605,-689.77,-9982.3
4.605,-738.71,-9961
4.606,-598.73,-9887.7
4.606,-798.11,-9997.7
4.605,-916.61,-10003
4.605,-1082.8,-9946.4
4.605,-1150.5,-9916.1
4.606,-981.04,-9880.7
4.606,-953.75,-9950.1
4.605,-1051.9,-9909.7
4.605,-1114.7,-9999.3
4.605,-1045.8,-9958.9
4.606,-918.02,-9987
4.606,-727.05,-9985.5
4.606,-640.89,-9883.3
4.606,-696.5,-9873.8
4.606,-797.76,-9959
4.606,-841.12,-9953.8
4.606,-950.07,-9968.6
4.606,-1200,-9906.9
4.606,-1160.2,-9978.1
4.606,-922.39,-10020
4.607,-813.43,-9954.6
4.607,-787.3,-9999.9
4.607,-814.73,-9999.5
4.606,-983.91,-9983.3
4.607,-1061.1,-9974.4
4.607,-1028.6,-9980.8
4.606,-913.53,-10027
4.606,-987.8,-9959.7
4.607,-892.9,-9952.3
4.607,-983.86,-9950.9
4.607,-799.8,-10033
4.607,-841.12,-9945.8
4.607,-920.63,-9904.5
4.607,-1106.5,-9979.9
4.607,-1079.7,-9952.2
4.607,-936.63,-9969.3
4.607,-837.99,-10025
4.607,-783.07,-9973
4.607,-954.8,-9939.5
4.607,-1066.7,-9851.4
4.608,-897.66,-9939.1
4.608,-864.25,-9941.9
4.608,-1012.8,-9921.1
4.608,-992.56,-9938.9
4.608,-869.03,-9954.7
4.608,-1002.8,-9906.9
4.607,-1008.9,-9865.6
4.608,-847.49,-9882.2
4.608,-665.75,-9954.4
4.608,-746.52,-9970.3
4.608,-803.72,-9966.7
4.608,-921.85,-10028
4.609,-1153.2,-9988.5
4.609,-920.92,-10041
4.609,-952.91,-9949.7
4.609,-839.52,-9880
4.609,-764.91,-9955.7
4.609,-756.2,-9922.2
4.609,-775.03,-9920.3
4.608,-665.21,-9908.2
4.609,-805.3,-9948
4.609,-791.69,-9904.6
4.609,-833.72,-9997.3
4.609,-894.94,-9967.8
4.609,-882.99,-10059
4.609,-722.05,-10010
4.609,-690.7,-9981.1
4.609,-745.27,-10014
4.609,-696.52,-10043
4.609,-843.74,-9966.1
4.609,-1062.2,-9905.6
4.609,-982.44,-9941
4.61,-911.36,-9952.8
4.61,-1036,-9868
4.61,-780.57,-9940.6
4.61,-937.66,-10013
4.61,-1070.3,-10008
4.609,-1187.3,-9998.1
4.61,-996.76,-9950.2
4.61,-968.13,-9947.6
4.61,-967.62,-9996.1
4.61,-912.08,-9941.5
4.61,-1089.3,-9972.5
4.611,-1081,-9853.9
4.611,-1049.6,-9756
4.61,-1003,-9799.3
4.611,-859.66,-9927.2
4.61,-730.49,-9990.9
4.61,-828.23,-9996.1
4.611,-1005.7,-10005
4.611,-1001.6,-9949.4
4.611,-1083.4,-10020
4.611,-1065,-10078
4.611,-975.73,-10097
4.611,-1021.1,-10072
4.611,-923.93,-10000
4.612,-715.15,-10013
4.611,-813.53,-9987.3
4.611,-825.13,-9970.1
4.612,-1233.4,-9977.8
4.612,-1240.6,-9925.7
4.612,-1258.9,-9965.3
4.613,-1148.8,-9967.4
4.611,-860.87,-9945
4.612,-1007.9,-10000
4.612,-1017.5,-10068
4.612,-1033.5,-10011
4.612,-984.22,-9970.8
4.612,-982.61,-10001
4.612,-1098.2,-9924.8
4.612,-1176.2,-9919.4
4.612,-1250.1,-9962.8
4.613,-1285.7,-9941.2
4.613,-1297.5,-10002
4.613,-1158.3,-9972.7
4.613,-1043,-9991.4
4.613,-930.41,-9959.6
4.613,-868.14,-9886.5
4.613,-760.47,-9906.2
4.613,-842.41,-9925.8
4.613,-855.56,-9945.7
4.613,-1084.5,-9954.3
4.614,-1088.8,-10034
4.614,-1163.8,-10056
4.614,-1094.1,-10055
4.614,-933.7,-10062
4.614,-915.77,-10014
4.613,-846.93,-9979.6
4.614,-954.19,-9957.9
4.614,-1120.1,-9988.3
4.613,-1320.5,-9980.3
4.614,-1258.8,-9973.8
4.614,-1080.7,-9968.5
4.614,-1037.3,-9941.9
4.614,-959.81,-9926.5
4.615,-979.99,-9962.6
4.614,-906.41,-9988.4
4.615,-995.08,-9969.7
4.614,-844.32,-9988.4
4.615,-852.41,-10028
4.615,-830.4,-10038
4.614,-640.75,-10014
4.615,-515.16,-10006
4.615,-411.53,-9991.1
4.615,-346.1,-10000
4.616,-247.97,-9990.5
4.616,-76.19,-9997.3
4.615,-24.649,-9941.4
4.616,186.04,-9961.5
4.615,448.15,-9978.6
4.616,686.08,-9974.6
4.616,805.06,-9975
4.616,731.91,-9981.1
4.617,294.43,-9977.9
4.616,-36.822,-9912.8
4.617,-328.31,-9878.8
4.617,-732.93,-9906.1
4.617,-906.98,-9930.8
4.616,-1096,-9921.4
4.617,-1198.9,-9925
4.617,-1230.5,-9936.2
4.617,-1322.7,-9965.9
4.617,-1329.4,-9984.2
4.617,-1327.8,-9979.1
4.618,-1314.5,-9975.8
4.618,-1262.9,-9962.7
4.618,-1202.2,-9987.2
4.618,-1116.2,-9956.6
4.618,-1031.9,-10009
4.618,-857.13,-10011
4.617,-823.63,-10031
4.618,-759.24,-10028
4.619,-850.26,-10021
4.618,-900.54,-10005
4.619,-866.36,-10011
4.619,-976.6,-9995.4
4.619,-1001.8,-9992.5
4.619,-888.76,-9981.4
4.619,-861.86,-9952
4.619,-813.15,-9960.6
4.619,-899.74,-9961.9
4.619,-909.39,-9950.9
4.62,-971.26,-9971.9
4.62,-885.63,-9963
4.62,-836.66,-9996.2
4.62,-837.95,-9966.3
4.621,-881.69,-9988.3
4.62,-856.54,-10035
4.62,-933.22,-10030
4.62,-1026.4,-9998
4.621,-960.58,-9991.4
4.62,-846.5,-9967.3
4.621,-849.21,-9990.5
4.621,-797.16,-9992.9
4.621,-705.2,-9976.9
4.621,-725.34,-9989.6
4.622,-783.61,-9967.8
4.621,-862.83,-10010
4.622,-876.5,-9977
4.621,-897.66,-10001
4.622,-886.26,-9995.8
4.622,-849.51,-9993.3
4.622,-824.72,-10020
4.622,-819.58,-9992.5
4.623,-785.97,-10014
4.623,-833.01,-9994.3
4.623,-908.07,-9990.1
4.623,-891.12,-9995.1
4.623,-913.09,-9981.9
4.623,-874.71,-10038
4.623,-853.26,-9978.2
4.623,-778.63,-9990.5
4.623,-771.61,-10002
4.623,-719.5,-10029
4.623,-765.63,-10032
4.624,-820.1,-9992.1
4.624,-812.62,-10007
4.624,-826.17,-9979
4.624,-759.72,-10002
4.624,-729.84,-10044
4.624,-736.99,-10042
4.625,-755.33,-10013
4.624,-725.42,-10051
4.625,-792.41,-10037
4.625,-796.07,-10026
4.625,-765.86,-10023
4.625,-744.6,-10024
4.626,-745.69,-10035
4.626,-698.96,-10006
4.625,-698.04,-10003
4.626,-712.51,-10020
4.627,-691.66,-10052
4.626,-687.69,-10023
4.626,-718.67,-10012
4.627,-640.99,-10029
4.627,-657.59,-10032
4.627,-716.79,-10027
4.627,-696.78,-10015
4.627,-624.49,-10046
4.627,-561.6,-10017
4.627,-570.46,-10017
4.628,-580.58,-9988.9
4.627,-557.92,-10006
4.627,-511.75,-10008
4.628,-618.13,-10004
4.628,-596.36,-10017
4.628,-558.95,-9979.1
4.628,-583.74,-9988.8
4.628,-574.36,-10004
4.629,-601.93,-10005
4.629,-573.47,-10034
4.629,-586.75,-10046
4.629,-534.21,-10057
4.629,-536.54,-10041
4.629,-520.68,-10044
4.63,-510.44,-10060
4.63,-477.81,-10077
4.631,-467.92,-10103
4.63,-433.29,-10060
4.63,-422.45,-10050
4.631,-390.95,-10059
4.631,-405.92,-10061
4.631,-527.19,-10046
4.631,-498.68,-9997.9
4.631,-516.09,-10035
4.631,-488.18,-10022
4.632,-445.42,-10026
4.632,-466.93,-10069
4.631,-505.74,-10068
4.632,-481.71,-10065
4.632,-480.73,-10080
4.632,-458.26,-10091
4.632,-453.26,-10080
4.632,-474.56,-10033
4.633,-506.35,-10040
4.633,-536.57,-10062
4.633,-516.28,-10063
4.633,-522.13,-10053
4.633,-527.25,-10047
4.633,-503.35,-10070
4.633,-503.78,-10064
4.634,-521.61,-10046
4.634,-562.91,-10025
4.633,-587.48,-10018
4.634,-598.25,-10027
4.634,-611.8,-10023
4.634,-598.64,-10024
4.635,-660.85,-10052
4.635,-723.42,-10064
4.635,-737.45,-10049
4.635,-731.05,-10033
4.635,-723.79,-10071
4.635,-714.58,-10020
4.635,-730.08,-9982.3
4.635,-679.15,-10001
4.635,-692.76,-10021
4.636,-722.31,-10036
4.636,-791.46,-10078
4.636,-868.11,-10073
4.636,-846.16,-10051
4.636,-881.93,-10049
4.636,-886.78,-10051
4.637,-885.76,-10063
4.636,-887.19,-10067
4.637,-803.1,-10051
4.637,-809.75,-10037
4.637,-844.93,-10022
4.638,-842.7,-10036
4.638,-937.38,-10042
4.638,-958.9,-10019
4.638,-900.68,-10022
4.639,-911.54,-10036
4.638,-915.84,-10046
4.638,-935.18,-10055
4.638,-899.11,-10072
4.638,-928.41,-10051
4.639,-866.17,-10065
4.639,-855.09,-10069
4.64,-829.93,-10062
4.64,-852.15,-10086
4.64,-868.89,-10084
4.639,-907.05,-10089
4.64,-903.41,-10078
4.64,-889.17,-10075
4.64,-886.58,-10056
4.64,-881.05,-10042
4.64,-890.02,-10024
4.641,-892.35,-10049
4.641,-846.8,-10053
4.642,-864.33,-10069
4.641,-845.87,-10065
4.642,-840.2,-10074
4.642,-876.13,-10075
4.642,-891.62,-10069
4.642,-865.92,-10054
4.642,-913.3,-10056
4.642,-887.15,-10053
4.643,-868.12,-10050
4.642,-889.86,-10034
4.643,-860.99,-10040
4.644,-875.17,-10038
4.643,-857.82,-10031
4.643,-861.4,-10048
4.643,-882.01,-10039
4.644,-845.69,-10034
4.643,-868.4,-10052
4.644,-889.66,-10044
4.644,-832.66,-10047
4.644,-873.26,-10038
4.645,-833.62,-10042
4.644,-835.95,-10055
4.645,-803.75,-10050
4.645,-794.66,-10052
4.645,-787.84,-10049
4.645,-796.32,-10081
4.646,-789.88,-10099
4.645,-782.68,-10071
4.646,-844.23,-10055
4.646,-845.91,-10083
4.646,-850.76,-10072
4.646,-872.64,-10079
4.646,-908.25,-10087
4.647,-884.84,-10056
4.647,-871.19,-10063
4.646,-860.9,-10080
4.6471,-849.17,-10084
4.648,-844.02,-10080
4.648,-848.57,-10067
4.648,-848.5,-10072
4.648,-825.27,-10085
4.649,-787.71,-10082
4.649,-806.34,-10076
4.648,-768.95,-10093
4.649,-844.79,-10113
4.648,-850.94,-10084
4.649,-882.7,-10069
4.649,-864.74,-10097
4.649,-881.26,-10120
4.649,-850.22,-10100
4.65,-818.02,-10069
4.65,-831.82,-10059
4.65,-848.12,-10041
4.65,-830.12,-10056
4.6501,-874.67,-10074
4.6509,-912.41,-10062
4.65,-886.16,-10084
4.6501,-874.1,-10042
4.651,-883.05,-10036
4.651,-838.01,-10035
4.652,-837.82,-10042
4.652,-847.06,-10025
4.652,-845.58,-10052
4.652,-840.69,-10059
4.652,-845.69,-10105
4.652,-864.89,-10106
4.652,-883.98,-10081
4.6521,-860.16,-10093
4.6531,-855.13,-10083
4.654,-877.49,-10064
4.6531,-862.73,-10037
4.654,-860.21,-10060
4.654,-925.25,-10076
4.654,-896.33,-10072
4.654,-880.62,-10072
4.654,-830.23,-10088
4.654,-866.23,-10055
4.655,-868.73,-10070
4.654,-874.63,-10077
4.655,-899.76,-10075
4.6551,-870.71,-10116
4.6559,-860.92,-10100
4.655,-869.9,-10087
4.6551,-893.09,-10083
4.6559,-881.75,-10094
4.6551,-918.2,-10116
4.656,-904.08,-10116
4.656,-907.71,-10092
4.656,-888.76,-10085
4.656,-905.71,-10068
4.657,-920.64,-10047
4.657,-894.7,-10049
4.658,-903.32,-10041
4.658,-947.41,-10055
4.658,-910.75,-10061
4.658,-894.03,-10057
4.658,-868.41,-10074
4.6581,-903.68,-10051
4.659,-889.24,-10101
4.659,-871.96,-10113
4.659,-888.54,-10105
4.6591,-881.18,-10152
4.66,-877.78,-10131
4.66,-918.8,-10120
4.66,-925.35,-10092
4.66,-927.7,-10109
4.6601,-946.62,-10142
4.6611,-937.34,-10190
4.6619,-952.8,-10189
4.6601,-945.93,-10180
4.661,-923.43,-10111
4.6611,-902.13,-10093
4.662,-868.97,-10052
4.662,-899.06,-10008
4.6621,-897.69,-9995.5
4.663,-928.46,-9998.8
4.6629,-929.84,-10040
4.6621,-937.11,-10058
4.663,-931.8,-10065
4.663,-943.35,-10049
4.6631,-913.04,-10033
4.664,-888.64,-10038
4.664,-901.26,-10049
4.664,-874.31,-10058
4.664,-877.3,-10081
4.6641,-840.26,-10081
4.665,-795.24,-10064
4.6649,-835.49,-10054
4.6641,-817.81,-10042
4.665,-806.9,-10040
4.6651,-855.4,-10044
4.666,-844.29,-10036
4.6661,-837.04,-10077
4.6669,-842.97,-10091
4.6661,-818.16,-10100
4.667,-784.52,-10100
4.667,-779.06,-10077
4.667,-784.16,-10080
4.667,-748.84,-10080
4.6671,-730.86,-10075
4.6681,-720,-10069
4.6689,-706.95,-10134
4.6681,-699.27,-10130
4.669,-689.24,-10152
4.669,-723.53,-10132
4.669,-736.15,-10114
4.669,-771.18,-10096
4.6691,-773,-10051
4.67,-748.05,-10024
4.67,-775.69,-10051
4.6701,-796.49,-10058
4.671,-792.1,-10055
4.671,-785.8,-10050
4.6711,-795.53,-10045
4.6719,-813.47,-10023
4.6711,-864.46,-10026
4.672,-851.95,-10024
4.6721,-853.86,-10032
4.6729,-888.61,-10042
4.6721,-879.29,-10048
4.6729,-905.45,-10065
4.6721,-926.5,-10078
4.6731,-927.48,-10097
4.6739,-922.28,-10102
4.6731,-950.13,-10080
4.674,-927.79,-10088
4.674,-910.19,-10063
4.674,-913.57,-10064
4.674,-950.61,-10058
4.6741,-929.79,-10067
4.675,-969.77,-10078
4.6751,-981.14,-10086
4.676,-975.22,-10083
4.676,-949.74,-10085
4.676,-921.16,-10087
4.6761,-919.97,-10091
4.677,-909.05,-10090
4.677,-932.18,-10124
4.677,-970.98,-10118
4.677,-951.91,-10137
4.677,-977.04,-10128
4.677,-991.57,-10138
4.6771,-982.25,-10087
4.6781,-950.12,-10089
4.6791,-930.61,-10053
4.6799,-932.92,-10039
4.6781,-935.23,-10042
4.679,-940.74,-10060
4.6791,-980.15,-10079
4.68,-953.77,-10144
4.68,-961.93,-10143
4.6801,-1003.6,-10130
4.681,-990.59,-10108
4.681,-989.1,-10112
4.681,-985.66,-10102
4.681,-944.68,-10076
4.6811,-956.4,-10064
4.682,-952.25,-10060
4.682,-943.49,-10057
4.682,-950.49,-10055
4.6821,-946.99,-10053
4.6829,-945.95,-10066
4.6822,-957.22,-10081
4.6839,-927.85,-10086
4.6831,-907.95,-10097
4.684,-909.44,-10106
4.684,-948.47,-10111
4.6841,-962.9,-10096
4.685,-973.66,-10095
4.685,-957.1,-10069
4.685,-954.72,-10058
4.685,-947.53,-10070
4.6851,-951.43,-10058
4.686,-963.69,-10069
4.6861,-956.6,-10066
4.687,-1009.6,-10110
4.687,-1018.4,-10109
4.687,-1019.5,-10076
4.687,-968.76,-10077
4.6871,-905.33,-10093
4.688,-856.2,-10097
4.688,-801.05,-10114
4.6881,-710.01,-10131
4.689,-609.65,-10126
4.6891,-509.43,-10109
4.6899,-396.4,-10102
4.6891,-246.41,-10108
4.69,-80.814,-10212
4.69,67.745,-10238
4.69,315.87,-10198
4.69,612.18,-10150
4.6901,863.06,-10088
4.691,984,-10056
4.691,908.1,-9996.1
4.6911,607.19,-9968.2
4.692,172.3,-10002
4.692,-135.85,-10054
4.6921,-459.72,-10052
4.693,-690.09,-10053
4.693,-829.16,-10039
4.693,-913.42,-10032
4.693,-987.48,-10045
4.6931,-1085.8,-10042
4.694,-1211.5,-10048
4.6941,-1250.3,-10067
4.6949,-1208,-10065
4.6941,-1143.1,-10041
4.695,-1091.5,-10031
4.695,-1009,-10028
4.6951,-945.92,-10031
4.696,-899.19,-10088
4.696,-869.95,-10132
4.696,-840.26,-10139
4.6961,-811.3,-10143
4.697,-815.02,-10155
4.6971,-796.36,-10144
4.6979,-824.38,-10081
4.6971,-818.64,-10054
4.698,-818.31,-10055
4.698,-811.01,-10034
4.6981,-811.52,-10025
4.699,-821.08,-10022
4.699,-811.43,-10044
4.6991,-803.51,-10046
4.7,-801.25,-10054
4.7001,-807.33,-10075
4.701,-802.98,-10095
4.7009,-786.44,-10098
4.7001,-798.49,-10097
4.701,-805.08,-10095
4.701,-795.23,-10099
4.7011,-787.18,-10098
4.702,-791.47,-10101
4.702,-770.9,-10107
4.7021,-767.38,-10090
4.703,-763.6,-10103
4.703,-756.42,-10150
4.7031,-751.09,-10145
4.704,-747.71,-10129
4.704,-763.34,-10146
4.7039,-747.75,-10158
4.7032,-773.52,-10123
4.705,-774.72,-10100
4.705,-779.61,-10102
4.705,-777.45,-10120
4.7051,-761.7,-10098
4.7061,-742.96,-10086
4.7069,-751.94,-10064
4.7061,-734.19,-10064
4.7069,-733.43,-10037
4.7061,-724.8,-10015
4.707,-729.76,-10008
4.707,-725.28,-10045
4.7071,-723.53,-10077
4.708,-719,-10108
4.7081,-695.4,-10132
4.709,-692.58,-10136
4.709,-660.19,-10152
4.7091,-651.78,-10123
4.7099,-660.28,-10132
4.7091,-673.32,-10145
4.71,-688.55,-10155
4.71,-677.04,-10143
4.71,-667.83,-10124
4.7101,-683.94,-10105
4.7111,-672.64,-10094
4.712,-669.03,-10083
4.7121,-639.5,-10092
4.713,-647.38,-10093
4.7129,-586.37,-10079
4.7121,-604.33,-10071
4.713,-605.78,-10110
4.713,-617.04,-10142
4.7131,-621.35,-10186
4.714,-579.46,-10205
4.714,-595.01,-10205
4.7141,-574.02,-10183
4.715,-549.06,-10121
4.7151,-548.2,-10051
4.7159,-553,-10044
4.7151,-537.83,-10077
4.716,-522.78,-10088
4.716,-512.87,-10091
4.7161,-522.07,-10112
4.717,-531.85,-10131
4.717,-543.1,-10135
4.7171,-522.29,-10140
4.718,-509.74,-10189
4.718,-483.44,-10219
4.718,-447.79,-10197
4.7181,-447.22,-10130
4.719,-424.12,-10106
4.719,-414.73,-10088
4.719,-408.13,-10059
4.719,-425.67,-10044
4.7191,-390.16,-10100
4.7201,-400.35,-10115
4.721,-386.28,-10114
4.7211,-378.99,-10126
4.7219,-362.1,-10136
4.721,-361.81,-10125
4.7211,-358.99,-10107
4.722,-351.13,-10081
4.722,-335.95,-10078
4.722,-340.31,-10091
4.7221,-326.28,-10106
4.723,-317.73,-10122
4.7231,-331.99,-10147
4.7241,-326.38,-10144
4.725,-313.5,-10140
4.725,-299.05,-10134
4.725,-317.41,-10143
4.725,-313.74,-10137
4.7251,-302.02,-10094
4.726,-311.11,-10079
4.726,-322.74,-10095
4.726,-327.66,-10076
4.7261,-346.19,-10079
4.7271,-365.01,-10096
4.7279,-375.86,-10115
4.7271,-361.04,-10134
4.728,-372.95,-10127
4.728,-391.55,-10138
4.7281,-414.94,-10171
4.7291,-412.32,-10184
4.73,-447.24,-10165
4.73,-480.12,-10159
4.7301,-496.06,-10157
4.7309,-515.14,-10145
4.7301,-540.02,-10142
4.731,-558.76,-10121
4.731,-572.62,-10110
4.731,-584.81,-10115
4.7311,-577.05,-10096
4.732,-601.27,-10083
4.7321,-633.28,-10084
4.733,-649.37,-10073
4.733,-654.92,-10069
4.7331,-658.26,-10118
4.734,-667.05,-10134
4.734,-683.62,-10132
4.7341,-701.75,-10117
4.7349,-722.58,-10125
4.7342,-727.02,-10129
4.7359,-730.14,-10131
4.7351,-742.64,-10129
4.736,-727.97,-10156
4.736,-720.31,-10135
4.7361,-728.17,-10106
4.737,-731.55,-10086
4.7371,-744.16,-10083
4.738,-775.67,-10073
4.738,-753.62,-10094
4.738,-781.67,-10119
4.7381,-774.21,-10183
4.739,-754.99,-10201
4.7391,-743.51,-10212
4.74,-743.53,-10178
4.7401,-742.48,-10149
4.741,-771.26,-10110
4.741,-768.32,-10097
4.741,-762.77,-10075
4.741,-777.22,-10059
4.7411,-779.46,-10058
4.7421,-776.04,-10088
4.743,-767.86,-10102
4.743,-759.41,-10109
4.743,-750.74,-10148
4.7431,-769.49,-10186
4.7441,-773.83,-10191
4.745,-776.37,-10189
4.745,-763.39,-10197
4.745,-759.19,-10170
4.7451,-743.81,-10128
4.746,-734.85,-10129
4.746,-759.94,-10144
4.7461,-775.8,-10145
4.747,-790.53,-10167
4.7471,-786.74,-10167
4.748,-784.98,-10143
4.748,-781.91,-10122
4.748,-770.2,-10100
4.7481,-756.18,-10083
4.749,-736.79,-10071
4.7491,-734.19,-10075
4.7499,-738.1,-10075
4.7491,-746.57,-10099
4.7501,-750.39,-10131
4.7511,-738.77,-10142
4.752,-726.48,-10164
4.7521,-740.04,-10168
4.753,-752.23,-10144
4.753,-749.88,-10176
4.7529,-755.67,-10199
4.7522,-751.6,-10203
4.754,-746.09,-10202
4.7539,-748.3,-10178
4.7532,-740.24,-10153
4.755,-742.02,-10136
4.7551,-729.45,-10145
4.756,-716.66,-10142
4.7561,-732.37,-10183
4.757,-742.28,-10186
4.7571,-757.22,-10171
4.7579,-758.35,-10120
4.7571,-755.67,-10077
4.758,-757.01,-10049
4.758,-760.58,-10019
4.7581,-762.71,-10062
4.7591,-751.01,-10089
4.7601,-758.25,-10070
4.7609,-753.71,-10098
4.7601,-747.95,-10107
4.761,-747.51,-10133
4.7611,-754.06,-10148
4.762,-752.56,-10142
4.7621,-772.37,-10141
4.763,-766.15,-10141
4.763,-771.83,-10149
4.7632,-774.03,-10136
4.765,-768.58,-10137
4.765,-775.05,-10133
4.765,-777.89,-10134
4.7651,-775.32,-10125
4.766,-773.99,-10123
4.7661,-781.61,-10175
4.767,-778.05,-10187
4.7671,-787.13,-10232
4.768,-795.19,-10280
4.7681,-795.13,-10284
4.769,-802.59,-10258
4.7691,-775.86,-10178
4.77,-774.77,-10112
4.77,-772.95,-10099
4.77,-786.15,-10089
4.7701,-789.47,-10066
4.7711,-781.67,-10082
4.772,-800.92,-10084
4.7721,-804.42,-10112
4.773,-813.82,-10157
4.7731,-818.97,-10215
4.774,-790.38,-10258
4.774,-800.88,-10237
4.7741,-784.9,-10179
4.775,-768.58,-10116
4.775,-773.56,-10097
4.7752,-779.32,-10091
4.777,-786.72,-10062
4.777,-789.51,-10103
4.7771,-802.97,-10098
4.778,-820.07,-10128
4.7781,-820.58,-10132
4.7791,-815.7,-10099
4.78,-810.97,-10105
4.78,-795.99,-10119
4.7801,-798.7,-10127
4.781,-799.29,-10128
4.781,-813.41,-10127
4.7811,-813.71,-10139
4.7821,-807.57,-10152
4.783,-808.33,-10184
4.7831,-829.77,-10204
4.784,-811.16,-10183
4.7841,-821.35,-10128
4.785,-805.04,-10099
4.785,-821.71,-10074
4.7851,-815.19,-10054
4.786,-804.45,-10065
4.7861,-805.92,-10104
4.787,-812.92,-10136
4.7871,-826.24,-10158
4.7881,-817.75,-10177
4.789,-814.76,-10171
4.789,-804.6,-10155
4.7891,-801.51,-10180
4.79,-790.98,-10190
4.79,-796.16,-10187
4.7901,-804.72,-10162
4.7911,-817.96,-10153
4.792,-816.1,-10143
4.7921,-831.15,-10116
4.7931,-814.17,-10153
4.794,-794.35,-10184
4.794,-796.65,-10206
4.7941,-798.02,-10187
4.795,-788.62,-10185
4.795,-808.94,-10184
4.7951,-832.17,-10159
4.796,-834.69,-10111
4.7961,-817.74,-10113
4.7971,-807.5,-10132
4.798,-799.73,-10136
4.7981,-802.07,-10148
4.7991,-801.7,-10182
4.8,-816.29,-10187
4.8,-843.21,-10174
4.8001,-846.8,-10158
4.801,-850.53,-10155
4.8011,-857.51,-10135
4.802,-845.28,-10135
4.8021,-831.28,-10131
4.8031,-820.93,-10138
4.804,-808.97,-10141
4.8041,-803.06,-10154
4.805,-794.1,-10165
4.805,-788.9,-10160
4.8051,-792.39,-10154
4.806,-814.06,-10155
4.8061,-817.34,-10154
4.807,-819.3,-10163
4.8071,-815.36,-10179
4.8081,-824.67,-10175
4.809,-813.43,-10165
4.8091,-826.65,-10159
4.81,-826.96,-10182
4.8101,-844.91,-10187
4.8111,-838.81,-10197
4.812,-832.91,-10236
4.8121,-835.68,-10276
4.813,-836.46,-10264
4.813,-828.54,-10238
4.8131,-826.95,-10184
4.815,-824.49,-10125
4.815,-819.07,-10084
4.8151,-819.5,-10082
4.816,-812.93,-10096
4.8161,-804.15,-10100
4.8171,-802.45,-10105
4.818,-814.75,-10112
4.818,-825.57,-10129
4.8181,-836.03,-10138
4.819,-836.81,-10149
4.8191,-823.76,-10168
4.821,-823.77,-10175
4.821,-809.11,-10164
4.822,-783.97,-10181
4.822,-785.97,-10230
4.823,-773.02,-10215
4.823,-762.03,-10184
4.8231,-757.78,-10155
4.824,-740.87,-10123
4.825,-730.76,-10070
4.8251,-721.47,-10039
4.8261,-725.83,-10046
4.827,-741.03,-10084
4.827,-733.88,-10099
4.828,-725.86,-10116
4.829,-739.07,-10134
4.829,-740.1,-10169
4.829,-726.46,-10192
4.83,-692.7,-10203
4.83,-675.84,-10214
4.831,-677.54,-10206
4.832,-648.23,-10173
4.833,-641.14,-10156
4.834,-641.67,-10138
4.835,-652.07,-10148
4.835,-653.06,-10134
4.835,-672.68,-10150
4.835,-675.05,-10144
4.836,-670.96,-10148
4.836,-687.25,-10152
4.837,-693.25,-10146
4.838,-706.77,-10173
4.839,-714.03,-10189
4.84,-737.53,-10172
4.84,-739.86,-10168
4.84,-748.72,-10184
4.841,-740.27,-10179
4.842,-752.51,-10148
4.842,-770.54,-10103
4.843,-784.37,-10095
4.844,-774.02,-10083
4.844,-759.8,-10079
4.845,-773.88,-10098
4.846,-794.64,-10113
4.846,-804.41,-10117
4.847,-809.96,-10113
4.847,-812.59,-10137
4.847,-820.78,-10165
4.848,-823.94,-10180
4.85,-822.98,-10173
4.85,-828.23,-10169
4.851,-820.77,-10155
4.85,-819.36,-10165
4.852,-818.63,-10225
4.852,-830.12,-10236
4.853,-845.28,-10208
4.853,-856.25,-10172
4.854,-854.56,-10128
4.855,-862.26,-10082
4.855,-858.55,-10061
4.857,-856.14,-10072
4.857,-836.41,-10109
4.858,-839.51,-10113
4.859,-836.42,-10098
4.859,-840.95,-10098
4.86,-833.16,-10114
4.86,-842.74,-10145
4.86,-855.42,-10166
4.861,-852.4,-10176
4.861,-845.35,-10171
4.862,-850.3,-10167
4.863,-847.31,-10152
4.863,-847.17,-10151
4.864,-852.07,-10120
4.865,-849.72,-10116
4.866,-856.67,-10120
4.867,-854.9,-10166
4.867,-849.69,-10177
4.868,-846.39,-10154
4.868,-839.04,-10115
4.869,-837.76,-10108
4.869,-839.79,-10078
4.87,-858.17,-10074
4.871,-864.36,-10085
4.872,-855.5,-10100
4.873,-850.14,-10104
4.873,-840.13,-10171
4.874,-834.91,-10192
4.874,-827.85,-10207
4.874,-817.71,-10170
4.875,-810.24,-10177
4.876,-816.3,-10155
4.878,-818.29,-10097
4.878,-833.57,-10063
4.879,-859.73,-10083
4.88,-892,-10091
4.88,-917.44,-10114
4.88,-944.67,-10135
4.881,-890.67,-10141
4.881,-814.65,-10155
4.882,-727.74,-10251
4.883,-692.52,-10280
4.884,-608.36,-10291
4.886,-472.73,-10263
4.886,-374.27,-10221
4.886,-269.85,-10142
4.887,-113.47,-10098
4.888,35.908,-10058
4.888,234.66,-10055
4.888,489.23,-10073
4.889,799.76,-10099
4.89,1059.1,-10124
4.891,1225.5,-10120
4.891,1316.1,-10107
4.892,1148.2,-10090
4.893,779.76,-10077
4.893,403.94,-10070
4.894,-49.751,-10063
4.896,-372.19,-10057
4.896,-606.63,-10056
4.896,-791.96,-10057
4.897,-913.78,-10056
4.897,-1018.5,-10067
4.899,-1073,-10085
4.9,-1118.3,-10108
4.901,-1101.5,-10123
4.901,-1023.2,-10128
4.902,-953.28,-10111
4.902,-895.26,-10090
4.902,-824.21,-10057
4.903,-766.9,-10057
4.904,-746.11,-10080
4.905,-726.88,-10094
4.906,-718.55,-10116
4.907,-713.14,-10150
4.908,-726.98,-10168
4.907,-710.27,-10180
4.908,-727.59,-10157
4.909,-720.28,-10141
4.91,-723.37,-10155
4.911,-726.47,-10159
4.911,-715.93,-10140
4.912,-709.57,-10126
4.912,-715.9,-10123
4.913,-714,-10108
4.914,-703.61,-10106
4.915,-694.08,-10123
4.915,-699.48,-10142
4.916,-710.46,-10141
4.917,-715.57,-10146
4.916,-708.73,-10127
4.9179,-706.58,-10133
4.919,-723.61,-10163
4.92,-716.09,-10197
4.921,-706.08,-10202
4.922,-698.19,-10212
4.922,-695.11,-10158
4.923,-694.86,-10104
4.923,-685.71,-10080
4.9239,-682.09,-10043
4.924,-680.48,-10063
4.9249,-678.31,-10076
4.926,-682.73,-10113
4.926,-668.24,-10134
4.9279,-653.82,-10126
4.928,-645.32,-10123
4.928,-637.04,-10093
4.9299,-637.07,-10092
4.931,-635.43,-10110
4.931,-648.8,-10093
4.931,-649.65,-10111
4.9319,-644.19,-10133
4.9329,-640.89,-10116
4.933,-638.26,-10089
4.9339,-630.21,-10084
4.9349,-625.18,-10082
4.9359,-610.72,-10127
4.936,-595.93,-10205
4.9369,-600.21,-10242
4.9379,-594.53,-10251
4.938,-602.09,-10226
4.9389,-602.2,-10222
4.939,-583.12,-10147
4.9399,-585.57,-10109
4.9409,-578.71,-10102
4.9419,-568.61,-10095
4.9429,-561.99,-10085
4.9439,-541.43,-10078
4.9449,-534.2,-10079
4.945,-535.63,-10085
4.9459,-515.6,-10096
4.946,-513.35,-10139
4.946,-504.03,-10157
4.9479,-498.07,-10175
4.948,-503.4,-10227
4.9489,-492.02,-10221
4.9509,-488.1,-10199
4.951,-476.49,-10205
4.951,-452.31,-10209
4.9519,-453.59,-10172
4.9529,-445.23,-10128
4.953,-435.97,-10124
4.953,-423.82,-10129
4.9539,-414.55,-10143
4.9549,-407.67,-10145
4.9559,-393.04,-10159
4.9569,-380.92,-10168
4.9579,-366.74,-10171
4.958,-343.96,-10151
4.9589,-354.19,-10133
4.959,-348.95,-10103
4.9599,-336.33,-10089
4.9609,-324.99,-10087
4.961,-314.39,-10102
4.9628,-317.09,-10114
4.963,-308.83,-10127
4.9639,-299.84,-10156
4.9649,-284.07,-10176
4.965,-269.44,-10175
4.9668,-265.11,-10180
4.967,-259.17,-10177
4.967,-250.07,-10163
4.9688,-243.13,-10168
4.969,-228.13,-10134
4.9699,-236.05,-10155
4.9709,-223.85,-10233
4.9719,-214.71,-10236
4.9729,-211.61,-10234
4.973,-203.25,-10228
4.973,-202.94,-10218
4.9739,-189.3,-10172
4.9749,-190.99,-10119
4.975,-181.13,-10094
4.9759,-190,-10105
4.9769,-193.28,-10143
4.9779,-191.37,-10158
4.9798,-189.48,-10182
4.9791,-198.97,-10180
4.9799,-199.32,-10153
4.9809,-213.47,-10136
4.9819,-218.78,-10123
4.982,-235.72,-10145
4.982,-255.84,-10155
4.9829,-269.66,-10165
4.9839,-286.13,-10158
4.9849,-301.62,-10149
4.9859,-322.99,-10135
4.9869,-347.05,-10137
4.987,-367.59,-10148
4.9879,-372.79,-10150
4.9889,-393.42,-10137
4.9899,-420.88,-10110
4.9891,-437.72,-10104
4.9899,-452.58,-10151
4.9909,-479.51,-10171
4.9919,-499.24,-10181
4.9929,-518.56,-10227
4.9939,-536.06,-10223
4.9949,-541.42,-10193
4.9959,-554.75,-10172
4.996,-572.88,-10164
4.9969,-590.69,-10153
4.997,-611.27,-10131
4.997,-622.71,-10125
4.9979,-632.4,-10167
4.9998,-644.81,-10218
5,-635.97,-10216
5.0009,-642.79,-10220
5.0019,-644.08,-10199
5.002,-661.04,-10157
5.0029,-666.52,-10103
5.003,-684.42,-10084
5.0039,-691.81,-10116
5.004,-696.69,-10123
5.0049,-704.82,-10136
5.0068,-718.07,-10162
5.007,-714.53,-10173
5.0079,-714.19,-10204
5.0089,-713.82,-10196
5.009,-710.76,-10202
5.0099,-714.42,-10191
5.0109,-712.93,-10186
5.011,-719.98,-10163
5.0119,-733.14,-10153
5.012,-732.89,-10140
5.0129,-740.89,-10113
5.0147,-738.17,-10087
5.015,-726.73,-10070
5.0159,-720.25,-10066
5.0169,-718.87,-10097
5.017,-713.25,-10115
5.0179,-706.63,-10136
5.018,-707.97,-10143
5.0189,-706.9,-10165
5.019,-708.92,-10176
5.0199,-708.79,-10184
5.02,-705.39,-10186
5.0217,-697.99,-10173
5.022,-695.94,-10159
5.0229,-700.13,-10137
5.0239,-708.1,-10120
5.024,-705.39,-10116
5.024,-706.26,-10132
5.0257,-712.61,-10150
5.026,-703.38,-10169
5.026,-701.28,-10199
5.026,-693.16,-10212
5.0277,-683.37,-10217
5.0289,-684.65,-10208
5.029,-680.42,-10187
5.0307,-693.91,-10162
5.031,-694.83,-10149
5.031,-688.77,-10141
5.031,-701.95,-10146
5.0327,-697.36,-10143
5.0339,-705.32,-10144
5.034,-705.93,-10150
5.0348,-708.77,-10172
5.035,-699.86,-10174
5.0358,-692.72,-10190
5.0369,-692.82,-10199
5.037,-700.64,-10211
5.0378,-701.68,-10198
5.038,-697.57,-10168
5.038,-694.87,-10163
5.0389,-690.25,-10150
5.0398,-693.38,-10230
5.04,-696,-10274
5.0408,-691.96,-10250
5.0418,-690.15,-10188
5.0428,-679.51,-10139
5.0438,-674.43,-10073
5.044,-683.2,-10035
5.044,-688.28,-10037
5.0448,-686.77,-10085
5.045,-683.64,-10134
5.0467,-685.02,-10148
5.047,-697.35,-10151
5.0478,-695.15,-10124
5.048,-687.51,-10115
5.0488,-692.95,-10141
5.0498,-695.54,-10169
5.05,-703.09,-10169
5.0508,-722.6,-10188
5.0518,-724.21,-10236
5.052,-717.59,-10228
5.0528,-714.39,-10213
5.0538,-716.33,-10185
5.054,-706.67,-10175
5.0548,-703.08,-10158
5.0558,-702.16,-10149
5.056,-704.86,-10148
5.056,-704.73,-10186
5.0568,-709,-10202
5.0578,-721.4,-10196
5.058,-722.29,-10192
5.058,-727.36,-10166
5.0588,-726.28,-10143
5.0598,-715.74,-10140
5.0608,-715.22,-10135
5.0618,-717.57,-10121
5.062,-718.34,-10111
5.0628,-716.74,-10106
5.063,-720.03,-10114
5.0638,-737.97,-10166
5.064,-737.3,-10198
5.0648,-737,-10224
5.065,-743.55,-10231
5.0658,-735.9,-10223
5.0668,-741.04,-10200
5.0678,-746.16,-10195
5.068,-741.83,-10196
5.0688,-741.58,-10187
5.069,-743.47,-10169
5.069,-744.95,-10153
5.0698,-754.8,-10127
5.07,-752.9,-10094
5.0708,-751.36,-10086
5.0718,-769.07,-10100
5.0728,-760.33,-10106
5.0738,-755,-10111
5.0748,-759.42,-10109
5.0742,-760.32,-10114
5.0748,-757.27,-10142
5.075,-766.8,-10163
5.0758,-774.28,-10168
5.0768,-769.67,-10181
5.0762,-771.54,-10180
5.0776,-765.76,-10164
5.078,-765.88,-10180
5.0796,-762.37,-10175
5.08,-766.55,-10149
5.08,-761.97,-10134
5.0808,-760.45,-10133
5.081,-763.04,-10137
5.081,-765.32,-10128
5.0818,-756.53,-10151
5.082,-763.45,-10160
5.0828,-768.53,-10166
5.083,-765.92,-10174
5.0846,-761.25,-10178
5.085,-758.88,-10198
5.0858,-758.79,-10216
5.086,-763.86,-10221
5.086,-769.52,-10211
5.0868,-769.16,-10191
5.087,-766.57,-10165
5.0878,-759.05,-10141
5.088,-760.08,-10121
5.0888,-764.16,-10122
5.089,-763.96,-10131
5.0898,-758.16,-10134
5.0908,-759.3,-10138
5.091,-752.84,-10152
5.091,-750.01,-10156
5.091,-755.44,-10150
5.0918,-760.3,-10138
5.0928,-761.18,-10141
5.093,-766.81,-10141
5.0938,-766.11,-10148
5.0948,-767.74,-10142
5.0958,-764.49,-10142
5.096,-759.46,-10151
5.096,-754.66,-10164
5.0968,-762.08,-10187
5.097,-758.98,-10178
5.0978,-767.18,-10182
5.098,-766.71,-10192
5.098,-771.45,-10192
5.0988,-765.18,-10186
5.0998,-759.92,-10192
5.1,-756.96,-10185
5.1008,-752.49,-10218
5.101,-747.21,-10231
5.1018,-751.44,-10213
5.102,-755.16,-10181
5.1028,-757.96,-10147
5.103,-766.56,-10118
5.103,-764.61,-10125
5.1038,-769.37,-10146
5.104,-767.47,-10159
5.1048,-765.3,-10159
5.105,-769.05,-10168
5.1058,-762.76,-10170
5.1068,-756.71,-10147
5.107,-754.65,-10130
5.107,-755.73,-10136
5.1078,-757.43,-10136
5.1088,-760.29,-10162
5.109,-761.53,-10182
5.1098,-763.54,-10196
5.11,-764.58,-10218
5.1108,-763.3,-10211
5.1118,-764.19,-10198
5.1112,-757.28,-10167
5.111,-759.57,-10134
5.1118,-762.33,-10109
5.112,-761.37,-10099
5.1128,-759.66,-10093
5.1138,-767,-10101
5.114,-769.21,-10139
5.1148,-776.62,-10180
5.1158,-769.25,-10201
5.116,-765.51,-10191
5.1168,-763.96,-10191
5.117,-755.3,-10182
5.117,-754.65,-10167
5.117,-760.36,-10151
5.1178,-760.86,-10165
5.118,-769.35,-10153
5.1188,-771.15,-10150
5.1198,-768.92,-10172
5.12,-761.45,-10192
5.12,-749.96,-10260
5.1216,-735.2,-10306
5.1212,-729.94,-10290
5.121,-719.82,-10242
5.121,-710,-10180
5.1218,-700.02,-10094
5.1228,-690.16,-10031
5.1238,-697.26,-10000
5.124,-687.11,-10034
5.124,-686.89,-10052
5.1248,-679.42,-10083
5.125,-687.44,-10104
5.1258,-684.79,-10084
5.126,-685.54,-10089
5.126,-684.17,-10107
5.1268,-663,-10129
5.127,-647.89,-10147
5.1278,-630.52,-10150
5.128,-615.4,-10144
5.1288,-599.43,-10160
5.1298,-585.12,-10176
5.1308,-590.01,-10204
5.131,-588.41,-10231
5.1302,-603.92,-10214
5.1308,-626.62,-10209
5.131,-628.2,-10171
5.1318,-631.63,-10165
5.1328,-639.77,-10144
5.1322,-643.83,-10125
5.1328,-658.56,-10144
5.133,-671.74,-10166
5.1338,-687.2,-10189
5.1348,-689.59,-10189
5.135,-700.53,-10188
5.135,-704.38,-10167
5.1358,-711.29,-10145
5.136,-720.14,-10130
5.136,-728.23,-10125
5.1368,-733.07,-10131
5.1378,-733.34,-10157
5.1388,-735.98,-10166
5.139,-742.93,-10157
5.1398,-753.07,-10147
5.1392,-753.3,-10150
5.1398,-760.22,-10136
5.1392,-762.33,-10136
5.139,-763.7,-10156
5.1398,-768.56,-10162
5.1408,-781.77,-10156
5.1418,-780.78,-10162
5.1428,-781.38,-10164
5.1422,-772.42,-10143
5.1428,-771.92,-10141
5.143,-771.57,-10144
5.143,-775.81,-10139
5.1438,-777.36,-10165
5.144,-778.11,-10229
5.1448,-776.93,-10286
5.1442,-781.65,-10292
5.1456,-781.92,-10249
5.146,-773.67,-10153
5.146,-767.31,-10045
5.1468,-770.08,-9956.9
5.147,-770.81,-9937.9
5.147,-774.72,-9983.6
5.147,-785.38,-10056
5.1478,-784.65,-10101
5.148,-788.59,-10148
5.1488,-794.23,-10177
5.149,-789.31,-10200
5.1498,-787.59,-10244
5.15,-782.93,-10242
5.15,-786.5,-10230
5.1508,-780.92,-10188
5.151,-780.14,-10142
5.151,-787.38,-10113
5.151,-783.1,-10082
5.151,-777.53,-10086
5.1518,-779.71,-10093
5.1528,-780.75,-10109
5.153,-774.58,-10130
5.1538,-767.08,-10131
5.154,-771.77,-10142
5.154,-769.99,-10156
5.1548,-767,-10187
5.1542,-771.63,-10177
5.1548,-771.77,-10161
5.155,-769.46,-10140
5.155,-768.12,-10132
5.155,-776.87,-10114
5.1566,-777.51,-10115
5.157,-776.19,-10104
5.1578,-784.84,-10080
5.1572,-798.75,-10055
5.1578,-809.92,-10040
5.1572,-819.33,-10047
5.157,-833.57,-10069
5.1578,-813.89,-10113
5.1588,-744.76,-10127
5.159,-648.97,-10130
5.159,-592.79,-10152
5.1598,-514.61,-10178
5.16,-411.15,-10177
5.1608,-313.28,-10201
5.1618,-231.06,-10212
5.1612,-114.55,-10249
5.161,52.606,-10273
5.161,230.01,-10254
5.1618,446.03,-10218
5.162,742.52,-10145
5.1628,1035,-10094
5.1622,1238.4,-10051
5.1628,1300.6,-10024
5.1638,1154.6,-10042
5.1632,809.08,-10058
5.1638,478.02,-10076
5.164,135.21,-10091
5.1648,-198.2,-10082
5.165,-412.88,-10090
5.1642,-604.45,-10095
5.1656,-782.72,-10089
5.166,-908.36,-10108
5.166,-999.71,-10122
5.1668,-1042.6,-10101
5.167,-1016,-10113
5.167,-944.21,-10120
5.1678,-861.56,-10110
5.168,-783.32,-10089
5.168,-723,-10092
5.1672,-686.62,-10095
5.1678,-670.32,-10103
5.168,-650.68,-10116
5.1688,-642.91,-10144
5.169,-634.14,-10197
5.169,-641.76,-10206
5.1698,-647.35,-10180
5.17,-656.8,-10171
5.17,-662.06,-10144
5.1708,-670.75,-10102
5.1702,-673.35,-10048
5.1708,-669.39,-10066
5.171,-671.46,-10094
5.1718,-670.38,-10111
5.172,-666.01,-10116
5.172,-666.21,-10109
5.1728,-655.65,-10081
5.1722,-658.42,-10086
5.172,-661.57,-10084
5.172,-660.04,-10086
5.1728,-663.14,-10108
5.1738,-659.73,-10118
5.1732,-647.73,-10128
5.1738,-647.34,-10155
5.174,-647.1,-10195
5.174,-643.93,-10201
5.1748,-638.54,-10166
5.175,-633.06,-10138
5.1742,-628.14,-10104
5.1748,-637.41,-10087
5.175,-634.09,-10089
5.175,-638.44,-10102
5.1758,-634.88,-10105
5.176,-626.3,-10090
5.176,-621.39,-10086
5.1768,-617.81,-10105
5.177,-607.79,-10117
5.1762,-600.8,-10147
5.1768,-601.53,-10158
5.1762,-598.13,-10173
5.1768,-592.28,-10196
5.177,-590.21,-10189
5.177,-574.73,-10152
5.1778,-569.45,-10121
5.1788,-561.33,-10098
5.1782,-561.4,-10100
5.1788,-562.23,-10083
5.179,-561.5,-10086
5.179,-555.24,-10089
5.1798,-552.37,-10090
5.1792,-549.04,-10070
5.179,-541.45,-10061
5.1798,-541.46,-10055
5.1792,-540.78,-10061
5.1798,-537.37,-10077
5.1808,-528.48,-10080
5.181,-527.16,-10088
5.181,-516.91,-10099
5.181,-514.03,-10120
5.1802,-506.46,-10120
5.1808,-495.52,-10130
5.181,-488.42,-10130
5.181,-484.9,-10123
5.1818,-479.99,-10127
5.182,-476.5,-10142
5.182,-464.75,-10180
5.182,-447.16,-10208
5.1828,-437.68,-10209
5.183,-428.86,-10189
5.183,-426.86,-10140
5.183,-419.87,-10112
5.183,-409.89,-10098
5.183,-405.23,-10118
5.183,-404.49,-10118
5.1838,-385.79,-10107
5.184,-367.62,-10137
5.184,-357.55,-10125
5.1848,-345.68,-10103
5.1842,-333.14,-10103
5.184,-320.55,-10089
5.184,-312.63,-10085
5.184,-299.96,-10078
5.184,-290.87,-10074
5.1848,-281.57,-10065
5.185,-267.67,-10080
5.1858,-253.41,-10088
5.1852,-238.53,-10108
5.185,-232.63,-10143
5.1858,-215.08,-10166
5.1852,-205.99,-10174
5.1858,-196.38,-10161
5.186,-191.23,-10138
5.1852,-178.06,-10091
5.185,-179.87,-10057
5.1858,-175.71,-10070
5.1868,-165.77,-10081
5.187,-154.49,-10082
5.187,-143.24,-10084
5.187,-132.02,-10085
5.1878,-133.99,-10096
5.1872,-132.04,-10112
5.187,-123.63,-10137
5.1878,-116.6,-10144
5.188,-117.78,-10147
5.188,-122.67,-10130
5.188,-116.62,-10123
5.1888,-125.93,-10102
5.1882,-123.5,-10089
5.188,-124.67,-10092
5.188,-135.19,-10101
5.188,-156.76,-10113
5.188,-174.56,-10119
5.188,-189.58,-10134
5.1888,-212.99,-10137
5.189,-234.24,-10146
5.189,-248.12,-10147
5.1898,-271.27,-10151
5.1892,-289.71,-10150
5.189,-308.79,-10125
5.1898,-326.53,-10126
5.1892,-344.97,-10134
5.189,-369.48,-10136
5.189,-393.31,-10148
5.189,-414.66,-10167
5.189,-438.9,-10157
5.1898,-452.35,-10133
5.19,-464.54,-10112
5.1892,-481.38,-10099
5.1898,-500.29,-10090
5.1908,-516.09,-10106
5.191,-533.72,-10123
5.1902,-550.64,-10126
5.19,-566.52,-10146
5.1908,-577.1,-10123
5.1902,-592.63,-10093
5.19,-595.44,-10090
5.19,-600.96,-10098
5.19,-611.74,-10098
5.1908,-625.25,-10092
5.191,-623.96,-10077
5.191,-633.17,-10071
5.1902,-644.37,-10058
5.1908,-650.07,-10061
5.1902,-657.34,-10090
5.19,-669.49,-10118
5.1908,-660.38,-10136
5.191,-658.88,-10131
5.191,-662.58,-10137
5.191,-670.43,-10140
5.191,-664.05,-10158
5.191,-662.13,-10146
5.1902,-669.44,-10140
5.1908,-672.95,-10133
5.191,-669.31,-10108
5.1902,-674.13,-10067
5.1908,-670.43,-10049
5.191,-669.41,-10051
5.1902,-669.14,-10055
5.1908,-672.18,-10057
5.1918,-666.72,-10089
5.192,-659.61,-10104
5.1912,-665,-10118
5.191,-673.51,-10132
5.191,-673.74,-10163
5.191,-681.07,-10162
5.191,-675.35,-10149
5.191,-678.98,-10148
5.191,-675.84,-10129
5.191,-667.09,-10114
5.1918,-668.04,-10082
5.1912,-665.54,-10081
5.191,-663.34,-10084
5.191,-666.67,-10089
5.191,-663.21,-10098
5.191,-664.39,-10106
5.191,-670.77,-10125
5.1918,-670.01,-10149
5.1912,-666.4,-10138
5.1918,-664.07,-10134
5.192,-665.29,-10131
5.192,-662.71,-10109
5.192,-666.63,-10074
5.1912,-660.82,-10074
5.191,-661.13,-10084
5.191,-661.64,-10072
5.191,-665.9,-10083
5.191,-659.29,-10084
5.1918,-654.94,-10115
5.192,-657.73,-10128
5.192,-659.94,-10127
5.192,-659.23,-10103
5.1912,-662.79,-10107
5.191,-671.88,-10110
5.191,-673.76,-10102
5.191,-678.97,-10112
5.191,-680.29,-10108
5.191,-680.24,-10108
5.191,-682.91,-10106
5.1918,-678.77,-10111
5.1912,-681.04,-10120
5.191,-676.74,-10127
5.1918,-673.87,-10128
5.1912,-676.48,-10132
5.191,-679.74,-10144
5.191,-677.83,-10170
5.191,-672.9,-10216
5.191,-681.87,-10249
5.191,-674.15,-10233
5.1918,-678.97,-10172
5.1912,-683.47,-10083
5.191,-674.79,-10017
5.191,-672.04,-9998.5
5.191,-678.9,-10015
5.191,-682.01,-10087
5.191,-682.03,-10129
5.1902,-679.07,-10129
5.1908,-683.52,-10135
5.1902,-686.38,-10122
5.1908,-681.42,-10100
5.191,-677.59,-10088
5.191,-684.47,-10074
5.191,-684.58,-10041
5.1902,-683.81,-10008
5.1908,-688.99,-9993.5
5.1902,-695.26,-10021
5.19,-696.25,-10057
5.19,-704.02,-10082
5.1908,-707.41,-10101
5.191,-706.38,-10108
5.191,-696.11,-10107
5.1902,-702.18,-10108
5.1908,-695.86,-10122
5.191,-696.62,-10114
5.1902,-701.28,-10117
5.1908,-696.74,-10098
5.1902,-705.69,-10086
5.19,-704,-10086
5.1909,-702.62,-10080
5.1902,-704.95,-10084
5.19,-699.81,-10092
5.19,-701.18,-10098
5.19,-693.88,-10107
5.19,-695.76,-10110
5.19,-703.36,-10106
5.19,-703.03,-10083
5.1891,-703.2,-10080
5.189,-712.45,-10114
5.1898,-711.8,-10119
5.19,-717.91,-10116
5.19,-711.67,-10104
5.19,-709.82,-10085
5.19,-713.3,-10073
5.1891,-709.7,-10082
5.189,-712.9,-10088
5.189,-717.67,-10112
5.1882,-719.6,-10121
5.188,-723.08,-10111
5.1889,-723.35,-10119
5.189,-721.74,-10107
5.189,-713.21,-10111
5.189,-712.51,-10112
5.189,-717.22,-10128
5.189,-713.22,-10140
5.189,-719.27,-10170
5.1882,-717.81,-10183
5.188,-718.47,-10155
5.1871,-717.4,-10129
5.1879,-713.93,-10168
5.188,-718.16,-10172
5.188,-716.27,-10136
5.1889,-718.85,-10078
5.1898,-718.62,-10053
5.1883,-716.31,-10010
5.188,-711.12,-9999.3
5.1871,-714.32,-10009
5.187,-714.56,-10077
5.187,-714.77,-10074
5.1879,-713.02,-10081
5.1871,-715.8,-10095
5.187,-706.54,-10099
5.1879,-715.62,-10140
5.188,-711.83,-10134
5.188,-710.36,-10115
5.188,-716.31,-10106
5.188,-716.56,-10087
5.1863,-721.04,-10080
5.1852,-724.36,-10057
5.1859,-719.67,-10040
5.186,-718.85,-10061
5.186,-718.17,-10086
5.186,-717.54,-10113
5.186,-716.57,-10125
5.1868,-716.09,-10120
5.1861,-712.08,-10114
5.1852,-717.76,-10116
5.185,-720.64,-10118
5.1859,-723.39,-10109
5.186,-725.01,-10103
5.1852,-728.98,-10080
5.1859,-712.72,-10071
5.186,-713.17,-10056
5.186,-715.32,-10078
5.1852,-718.23,-10081
5.185,-707.42,-10064
5.185,-711.45,-10055
5.185,-715.24,-10045
5.185,-718.53,-10064
5.1841,-721.39,-10069
5.184,-723.6,-10080
5.184,-724.25,-10075
5.184,-720.34,-10075
5.184,-719.75,-10093
5.184,-725.78,-10116
5.1849,-721.91,-10123
5.185,-720.97,-10144
5.1841,-715.55,-10149
5.1832,-715.92,-10133
5.183,-715.22,-10124
5.1839,-720,-10120
5.1832,-720.84,-10125
5.183,-718.08,-10111
5.1839,-711.57,-10078
5.184,-716.03,-10072
5.1823,-709.08,-10066
5.182,-710.57,-10059
5.1829,-707.67,-10062
5.1822,-709.22,-10095
5.1803,-714.5,-10149
5.1817,-713.96,-10161
5.182,-717.77,-10136
5.182,-717.12,-10104
5.182,-711.84,-10070
5.1811,-717.2,-10058
5.1818,-709.03,-10060
5.182,-708.84,-10047
5.1803,-711.62,-10063
5.1809,-719.06,-10074
5.181,-717.15,-10083
5.1802,-720.04,-10062
5.18,-718.29,-10040
5.18,-716.07,-10054
5.1809,-719.89,-10074
5.1793,-723.06,-10084
5.1807,-720.1,-10119
5.1802,-716.81,-10131
5.18,-721.56,-10136
5.1791,-728.32,-10118
5.1798,-721.99,-10122
5.1792,-722.27,-10117
5.1798,-726.03,-10103
5.1792,-724.81,-10092
5.179,-715.03,-10091
5.1798,-712.33,-10084
5.18,-718.19,-10092
5.1792,-717.48,-10080
5.179,-717.22,-10077
5.179,-714.58,-10074
5.1782,-708.26,-10076
5.178,-721.08,-10078
5.178,-716.38,-10094
5.178,-721.32,-10129
5.178,-718.68,-10161
5.178,-713.97,-10189
5.178,-716.55,-10169
5.178,-712.95,-10124
5.1772,-717.61,-10071
5.177,-716.92,-10022
5.177,-723.02,-10010
5.177,-721.6,-10032
5.1762,-728.02,-10050
5.176,-726.22,-10051
5.1768,-725.66,-10062
5.177,-717.1,-10058
5.177,-709.63,-10060
5.1762,-713.91,-10095
5.176,-714.13,-10110
5.176,-712.72,-10150
5.176,-718.7,-10166
5.1752,-720.57,-10136
5.175,-714.27,-10108
5.175,-718.45,-10080
5.175,-721.66,-10040
5.175,-719.78,-10025
5.175,-711.39,-10061
5.175,-713.91,-10090
5.175,-708.38,-10109
5.175,-715.38,-10106
5.1742,-715.48,-10089
5.1732,-720.02,-10075
5.1738,-719.7,-10100
5.174,-726.87,-10137
5.174,-720.71,-10144
5.174,-718.18,-10123
5.1732,-711.21,-10117
5.1738,-713.38,-10094
5.1732,-711.29,-10046
5.173,-706.91,-10023
5.1722,-712.21,-10041
5.1728,-718.23,-10054
5.1722,-717.74,-10074
5.172,-722.34,-10073
5.1728,-721.22,-10089
5.1722,-722.06,-10136
5.172,-713.33,-10158
5.172,-715.3,-10134
5.172,-724.6,-10129
5.172,-722.32,-10104
5.1712,-731.26,-10074
5.171,-719.54,-10081
5.171,-716.52,-10112
5.1702,-725.39,-10138
5.17,-723.38,-10114
5.1708,-725.52,-10094
5.171,-723.26,-10054
5.1702,-725.7,-10009
5.17,-724.48,-10008
5.17,-727.24,-10054
5.17,-727.22,-10092
5.17,-726.75,-10095
5.1692,-729.56,-10100
5.169,-728.51,-10104
5.169,-741.18,-10123
5.169,-741,-10091
5.169,-733.19,-10082
5.1682,-736.74,-10093
5.1696,-734.58,-10094
5.1692,-728.13,-10093
5.1682,-732.58,-10088
5.168,-732.77,-10071
5.168,-719.81,-10070
5.168,-714.83,-10072
5.1672,-703.34,-10047
5.167,-698.19,-10040
5.1678,-681.43,-10061
5.1672,-665.57,-10097
5.167,-676.72,-10116
5.167,-678.47,-10130
5.1662,-671.91,-10120
5.1652,-669.27,-10148
5.1666,-678.15,-10136
5.1662,-678.3,-10120
5.166,-676.37,-10104
5.166,-673.44,-10102
5.166,-656.97,-10074
5.166,-631.09,-10062
5.1652,-607.84,-10073
5.165,-582.32,-10065
5.165,-578.67,-10069
5.165,-568.23,-10063
5.1642,-569.81,-10058
5.164,-580.81,-10063
5.164,-614.51,-10054
5.1632,-639.93,-10059
5.163,-644.77,-10064
5.1638,-648,-10081
5.164,-651.53,-10132
5.164,-665.61,-10179
5.1632,-689.3,-10175
5.1638,-697.22,-10152
5.1632,-699.98,-10113
5.163,-693.23,-10062
5.1622,-692.3,-10031
5.1628,-694.83,-10018
5.1622,-699.58,-10032
5.162,-713.22,-10055
5.162,-716.56,-10070
5.162,-717.62,-10086
5.162,-710.75,-10106
5.1612,-720.03,-10092
5.161,-746.45,-10087
5.1602,-754.55,-10079
5.1608,-760.69,-10080
5.161,-762.75,-10081
5.161,-758.09,-10082
5.161,-759.42,-10068
5.161,-757.54,-10070
5.161,-761.09,-10089
5.1602,-760.36,-10094
5.16,-762.81,-10071
5.1592,-770.27,-10053
5.159,-770.19,-10052
5.159,-769.55,-10056
5.159,-778.74,-10077
5.159,-784.43,-10085
5.159,-784.23,-10106
5.159,-780.11,-10137
5.159,-784.71,-10174
5.1582,-779.51,-10184
5.158,-782.22,-10150
5.158,-787.13,-10128
5.158,-788.04,-10078
5.158,-787.36,-10052
5.1572,-786.09,-10061
5.157,-787.01,-10086
5.1578,-790.47,-10083
5.1572,-787.24,-10101
5.157,-786.57,-10125
5.157,-787.03,-10131
5.1562,-788.05,-10095
5.156,-786.68,-10083
5.1568,-791.11,-10073
5.1554,-795.7,-10062
5.155,-794.36,-10077
5.1558,-797.31,-10085
5.156,-801.97,-10111
5.1552,-800.1,-10117
5.1558,-795.2,-10118
5.1552,-791.58,-10123
5.155,-786.23,-10140
5.155,-790.82,-10101
5.155,-797.2,-10070
5.1542,-794.37,-10062
5.154,-795.89,-10072
5.1532,-796.29,-10067
5.1538,-794.26,-10061
5.1532,-797.82,-10068
5.153,-799.55,-10068
5.153,-808.53,-10069
5.1538,-816.31,-10080
5.1525,-836.71,-10090
5.152,-850.5,-10075
5.152,-858.39,-10048
5.152,-839.4,-10039
5.152,-775.14,-10030
5.1512,-664.84,-10035
5.1518,-588.06,-10057
5.1512,-521.25,-10087
5.151,-443,-10098
5.1518,-353.94,-10086
5.1505,-283.79,-10097
5.1508,-171.47,-10092
5.151,8.2152,-10105
5.1502,190.79,-10116
5.15,374.07,-10123
5.15,687.15,-10115
5.15,971.41,-10116
5.15,1193.1,-10101
5.15,1268,-10102
5.15,1146.9,-10098
5.1492,822.67,-10090
5.1482,467.05,-10077
5.1488,119.98,-10069
5.1482,-236.27,-10068
5.148,-471.78,-10070
5.148,-664.84,-10080
5.148,-853.39,-10073
5.148,-955.66,-10048
5.148,-1015.3,-10031
5.1472,-1023.2,-10051
5.147,-979.48,-10084
5.1462,-914.08,-10117
5.146,-832.24,-10116
5.146,-767.3,-10101
5.146,-712.17,-10086
5.1452,-687.59,-10063
5.145,-668.89,-10045
5.145,-649.78,-10056
5.1458,-653.08,-10040
5.1452,-663.9,-10022
5.145,-666.77,-10030
5.145,-680.88,-10042
5.145,-685.01,-10050
5.1443,-692.12,-10063
5.144,-695.35,-10083
5.1433,-706.63,-10069
5.1437,-702.92,-10084
5.144,-701.64,-10095
5.144,-689.46,-10080
5.144,-685.11,-10078
5.144,-687.21,-10077
5.1433,-685.28,-10073
5.143,-690.07,-10058
5.1422,-688.77,-10019
5.142,-687.53,-10023
5.142,-689.09,-10041
5.142,-687.69,-10038
5.142,-679.63,-10052
5.1413,-674.81,-10082
5.1418,-674.84,-10100
5.1413,-667.46,-10141
5.141,-665.72,-10145
5.141,-664.5,-10117
5.1403,-669.71,-10104
5.14,-669.37,-10078
5.14,-669.65,-10086
5.14,-669.85,-10093
5.14,-663.07,-10091
5.14,-660.73,-10083
5.1393,-659.07,-10061
5.139,-657.96,-10055
5.139,-647.21,-10075
5.1383,-640.06,-10083
5.1373,-648.84,-10096
5.1377,-643.66,-10129
5.1387,-642.93,-10159
5.1383,-639.97,-10158
5.1373,-634.5,-10145
5.1377,-630.03,-10124
5.138,-627.09,-10095
5.1373,-624.94,-10055
5.137,-615.1,-10009
5.1363,-609.09,-10003
5.136,-611.16,-10020
5.136,-603.33,-10061
5.136,-603.67,-10080
5.1353,-606.09,-10074
5.1357,-600.97,-10072
5.1353,-596.58,-10076
5.135,-586.63,-10060
5.1357,-575.55,-10064
5.1353,-568.12,-10071
5.135,-566.13,-10071
5.1343,-558.32,-10089
5.1333,-556.16,-10089
5.1337,-547.92,-10087
5.134,-542.03,-10096
5.1333,-534.79,-10103
5.133,-534.99,-10126
5.133,-525.78,-10139
5.133,-522.63,-10126
5.1323,-511.9,-10111
5.1327,-499.59,-10084
5.1323,-492.07,-10049
5.132,-486.81,-10036
5.132,-475.18,-10020
5.1313,-467.47,-10050
5.131,-459.87,-10070
5.131,-451.9,-10077
5.131,-437.31,-10075
5.131,-426.43,-10083
5.131,-410.75,-10104
5.131,-396.78,-10104
5.1303,-392.94,-10088
5.1293,-386.02,-10089
5.129,-377.83,-10073
5.129,-365.85,-10049
5.1283,-360.85,-10022
5.1287,-352.05,-10032
5.129,-338.63,-10048
5.1283,-323.58,-10059
5.128,-314.79,-10084
5.128,-296.97,-10113
5.128,-290.9,-10107
5.1273,-280.29,-10100
5.1263,-270.51,-10095
5.126,-272.1,-10113
5.126,-268.23,-10118
5.1267,-257.12,-10120
5.1263,-243.57,-10117
5.126,-234.78,-10081
5.126,-224.86,-10035
5.126,-212.98,-10032
5.1253,-209.98,-10035
5.125,-205.88,-10049
5.1243,-200.29,-10059
5.124,-193.07,-10078
5.124,-190.09,-10085
5.124,-188.54,-10103
5.1247,-186.92,-10120
5.125,-182.88,-10133
5.1243,-178.77,-10136
5.124,-175.82,-10107
5.124,-181.8,-10070
5.1233,-180.16,-10070
5.1223,-184.42,-10068
5.122,-192.05,-10095
5.1227,-210.33,-10137
5.123,-225.38,-10135
5.1223,-242.95,-10095
5.122,-257.24,-10060
5.122,-278.73,-10039
5.122,-309.2,-10024
5.122,-326.19,-10073
5.1213,-345.76,-10102
5.121,-372.94,-10083
5.1203,-393.88,-10062
5.1193,-413.67,-10064
5.1197,-436.24,-10071
5.12,-462.58,-10069
5.12,-476.82,-10101
5.12,-489.2,-10120
5.12,-508.23,-10128
5.1193,-527.06,-10128
5.1183,-543.74,-10104
5.118,-566.77,-10061
5.118,-578.9,-10035
5.118,-591.03,-10009
5.118,-617.71,-10007
5.118,-634.72,-10003
5.1173,-637.52,-10026
5.1177,-647.1,-10050
5.1173,-656.38,-10060
5.117,-658.08,-10075
5.1163,-664.81,-10085
5.116,-679.12,-10069
5.116,-686.53,-10061
5.1153,-685.49,-10055
5.115,-701.04,-10067
5.1157,-707.35,-10069
5.1153,-700.91,-10085
5.115,-711.1,-10108
5.115,-718.95,-10124
5.115,-715.8,-10104
5.1143,-724.06,-10082
5.1133,-721.45,-10054
5.1137,-717.17,-10029
5.1133,-719.53,-10031
5.113,-731.57,-10055
5.1137,-736.51,-10070
5.1133,-732.63,-10087
5.113,-733.99,-10089
5.1123,-730.5,-10089
5.112,-728.21,-10100
5.112,-726.92,-10111
5.112,-726.43,-10105
5.112,-730.86,-10092
5.1113,-732.51,-10050
5.111,-732.97,-10025
5.111,-738.86,-10020
5.1103,-740.39,-10017
5.11,-739.78,-10006
5.1107,-735.12,-10036
5.1103,-731.95,-10077
5.11,-727.7,-10086
5.1093,-731.17,-10078
5.109,-728.86,-10099
5.1083,-730.16,-10113
5.1087,-725.77,-10091
5.1083,-726.16,-10064
5.108,-730.37,-10092
5.108,-726.34,-10109
5.1073,-721.51,-10090
5.1063,-724.96,-10058
5.1074,-721.04,-10052
5.1073,-716.82,-10056
5.1063,-723.41,-10040
5.106,-727.17,-10047
5.106,-731.96,-10051
5.106,-734.1,-10046
5.106,-729.34,-10030
5.106,-729.82,-10028
5.106,-721.22,-10048
5.1053,-717.96,-10071
5.1057,-716.33,-10099
5.1053,-716.33,-10118
5.1043,-725.92,-10131
5.1033,-730.51,-10146
5.1037,-726.97,-10125
5.104,-727.91,-10094
5.1026,-732.12,-10060
5.102,-738.9,-10044
5.102,-735.9,-10024
5.1027,-735.4,-10007
5.103,-734.59,-10009
5.1023,-728.69,-10008
5.102,-722.79,-10036
5.1013,-729.15,-10043
5.101,-731.02,-10056
5.1003,-726.05,-10073
5.1007,-730.87,-10093
5.101,-731.99,-10093
5.1017,-724.92,-10079
5.1013,-721.95,-10071
5.101,-721.77,-10072
5.1003,-720.17,-10086
5.1,-724.56,-10104
5.1,-729.81,-10128
5.0993,-727.96,-10154
5.099,-739.03,-10131
5.0983,-741.19,-10090
5.098,-741.84,-10057
5.098,-740.23,-10058
5.098,-733.38,-10051
5.098,-729.76,-10043
5.098,-730.86,-10048
5.098,-734.4,-10033
5.0973,-740.37,-10042
5.097,-747.43,-10065
5.0963,-744.83,-10093
5.0953,-750.52,-10093
5.0957,-749.55,-10082
5.096,-749.84,-10056
5.096,-744.6,-10046
5.096,-748.36,-10029
5.0953,-748.53,-10040
5.095,-746.14,-10066
5.0943,-746.56,-10071
5.0947,-751.24,-10054
5.0943,-752.59,-10027
5.0933,-752.18,-10026
5.093,-760.84,-10035
5.093,-771.92,-10062
5.0937,-767.27,-10099
5.0933,-761.67,-10103
5.093,-759.66,-10097
5.093,-756.74,-10086
5.0923,-755.15,-10093
5.0913,-758.24,-10104
5.0923,-754.14,-10078
5.0923,-759.61,-10079
5.0913,-767.22,-10088
5.091,-765.2,-10099
5.091,-762.36,-10186
5.091,-761.02,-10214
5.091,-762.72,-10153
5.091,-763.31,-10110
5.0903,-767.7,-10070
5.09,-772,-10026
5.0893,-775.88,-9997.4
5.089,-779.14,-10013
5.0884,-784.38,-10027
5.0887,-787.39,-10031
5.0884,-783.72,-10070
5.088,-779.02,-10091
5.0887,-784.89,-10082
5.089,-790.92,-10079
5.0877,-790.98,-10076
5.087,-802.86,-10072
5.087,-806.03,-10056
5.0864,-807.69,-10079
5.0866,-805.43,-10102
5.0864,-810.45,-10102
5.086,-811.73,-10084
5.086,-806.13,-10073
5.086,-803.39,-10052
5.086,-802.28,-10058
5.0854,-796.53,-10070
5.085,-802.77,-10096
5.0844,-809.73,-10106
5.0846,-816.82,-10093
5.085,-810.11,-10072
5.0844,-813.11,-10051
5.084,-814.52,-10070
5.084,-809.08,-10075
5.084,-809.24,-10092
5.0834,-813.62,-10092
5.083,-814.98,-10085
5.083,-813.01,-10084
5.0824,-810.15,-10117
5.0826,-809.33,-10127
5.0824,-817.65,-10102
5.0814,-827.26,-10074
5.081,-826.62,-10043
5.0816,-816.85,-10026
5.082,-813.75,-10032
5.0814,-813.18,-10042
5.081,-808.3,-10046
5.081,-809.88,-10071
5.0804,-818.23,-10082
5.0806,-821.15,-10066
5.0804,-820.9,-10071
5.0794,-818.71,-10068
5.0796,-815.61,-10076
5.0794,-811.05,-10084
5.0796,-813.33,-10074
5.0794,-816.62,-10070
5.079,-809.54,-10074
5.079,-816.83,-10081
5.0784,-826.92,-10069
5.078,-827.69,-10068
5.0774,-824.66,-10091
5.077,-829.93,-10086
5.0776,-826.24,-10081
5.0774,-828.67,-10091
5.077,-829.92,-10096
5.0764,-826.87,-10092
5.076,-827.4,-10074
5.076,-820.94,-10066
5.0754,-826.23,-10069
5.075,-823.51,-10051
5.075,-818.64,-10040
5.075,-821.74,-10063
5.075,-824.8,-10072
5.075,-834.14,-10067
5.0744,-830.17,-10074
5.074,-825.49,-10082
5.074,-828.23,-10087
5.074,-822.64,-10087
5.0734,-829.52,-10080
5.073,-835.55,-10058
5.073,-833.9,-10057
5.073,-831.38,-10069
5.073,-834.36,-10070
5.0724,-834.16,-10071
5.072,-823.82,-10113
5.072,-822.61,-10134
5.0713,-822.05,-10098
5.071,-820.06,-10068
5.071,-820.33,-10057
5.071,-824.68,-10060
5.071,-829.92,-10059
5.0704,-830.57,-10053
5.07,-833.07,-10057
5.07,-831.05,-10086
5.07,-832.12,-10109
5.07,-829.14,-10094
5.0694,-831.12,-10074
5.069,-831.45,-10067
5.069,-830.61,-10075
5.0683,-833.54,-10063
5.068,-834.83,-10059
5.068,-834.09,-10075
5.0674,-836.42,-10077
5.067,-836.13,-10078
5.067,-833.95,-10083
5.0677,-829.69,-10067
5.068,-822.4,-10044
5.0667,-823.58,-10032
5.066,-826.52,-10012
5.066,-824.28,-10015
5.066,-824.72,-10050
5.0653,-827.16,-10069
5.0656,-834.42,-10083
5.066,-833.75,-10086
5.0653,-833.59,-10074
5.0656,-829.05,-10058
5.0653,-826.28,-10045
5.065,-821.53,-10018
5.065,-823.07,-10016
5.0644,-830.58,-10061
5.0633,-834.47,-10094
5.0637,-834.46,-10096
5.0633,-834.3,-10086
5.0637,-840.07,-10069
5.0633,-840.15,-10049
5.063,-831.08,-10043
5.063,-826.55,-10042
5.063,-824.07,-10040
5.0624,-822.42,-10045
5.062,-819.68,-10029
5.0614,-826.71,-10021
5.061,-824.5,-10021
5.061,-825.12,-10036
5.061,-832.43,-10079
5.061,-837.23,-10110
5.061,-832.66,-10127
5.061,-826.64,-10165
5.0603,-821.39,-10163
5.0606,-819.08,-10113
5.0597,-815.9,-10080
5.0597,-819.13,-10059
5.0594,-822.12,-10057
5.059,-819.17,-10068
5.0583,-817.71,-10085
5.0587,-830.72,-10094
5.0583,-829.73,-10071
5.058,-828.2,-10050
5.058,-829.67,-10018
5.058,-821.23,-9985.7
5.0573,-819.77,-9974.2
5.057,-826.04,-9991.8
5.0564,-821.81,-10029
5.0567,-819.51,-10053
5.0564,-829.07,-10089
5.056,-832.14,-10124
5.056,-826.5,-10116
5.056,-822.61,-10093
5.056,-822.82,-10092
5.056,-819.08,-10094
5.056,-814.95,-10059
5.0553,-816.57,-10040
5.0544,-821.31,-10040
5.054,-824.86,-10047
5.054,-827.62,-10066
5.054,-823.33,-10089
5.0534,-825.93,-10100
5.053,-821.11,-10115
5.053,-819.19,-10119
5.053,-820.08,-10094
5.053,-815.53,-10079
5.053,-818.69,-10054
5.053,-821.09,-10023
5.0523,-827.11,-10011
5.052,-830.12,-10017
5.052,-839.14,-10045
5.0514,-836.85,-10080
5.0517,-832.85,-10080
5.052,-838.74,-10059
5.0514,-832.13,-10051
5.051,-826.98,-10033
5.051,-824.26,-10017
5.0503,-823.94,-10007
5.05,-817.94,-10017
5.05,-816.8,-10035
5.0493,-818.53,-10048
5.0496,-815.08,-10063
5.0493,-812.45,-10067
5.0496,-805.04,-10061
5.05,-807.89,-10067
5.0493,-792.54,-10082
5.049,-778.03,-10071
5.0484,-766.9,-10071
5.0473,-763.82,-10061
5.0477,-753.06,-10065
5.0473,-751.02,-10082
5.0477,-760.99,-10102
5.0473,-764.13,-10125
5.047,-766.1,-10109
5.0477,-763.12,-10111
5.0473,-758.39,-10093
5.047,-745.1,-10058
5.0464,-714.53,-10070
5.046,-695.22,-10077
5.046,-672.13,-10061
5.046,-658.52,-10050
5.0453,-650.99,-10036
5.045,-641.75,-10012
5.045,-642.14,-10005
5.0443,-653.34,-10005
5.0446,-664.67,-10026
5.045,-674.59,-10046
5.0443,-676.9,-10058
5.044,-683.57,-10051
5.0433,-690.82,-10050
5.0423,-707.34,-10088
5.0427,-727.77,-10096
5.043,-729.23,-10094
5.0437,-739.56,-10094
5.0433,-740.1,-10086
5.043,-755.05,-10070
5.0423,-769.74,-10036
5.042,-782.46,-10024
5.0413,-796.4,-10024
5.0417,-796.25,-10023
5.0413,-795.46,-10021
5.0417,-807.2,-10043
5.0413,-826.4,-10060
5.041,-838.47,-10097
5.041,-834.25,-10138
5.041,-835.19,-10138
5.0403,-837.02,-10111
5.04,-839.2,-10082
5.0393,-850.41,-10061
5.039,-855.27,-10033
5.039,-851.64,-10058
5.039,-852.75,-10081
5.039,-859.48,-10073
5.039,-860.83,-10063
5.039,-860.75,-10045
5.0383,-864.76,-10040
5.038,-863.66,-10026
5.038,-860.84,-10006
5.0373,-858.8,-10012
5.0377,-865.52,-10035
5.0373,-865.16,-10046
5.037,-868.89,-10049
5.0363,-873.49,-10062
5.036,-875.91,-10097
5.0367,-870.64,-10121
5.037,-867.61,-10142
5.037,-871.11,-10171
5.0363,-860.99,-10172
5.036,-863.34,-10128
5.0353,-866.43,-10071
5.0343,-867.01,-10043
5.034,-871.24,-10041
5.034,-876.72,-10028
5.0347,-876.62,-10009
5.0343,-871.04,-10001
5.034,-870.35,-10010
5.034,-873.83,-10047
5.0347,-867.71,-10106
5.0337,-862.91,-10119
5.0337,-861.21,-10090
5.0333,-860.26,-10077
5.0323,-856.77,-10072
5.0327,-857.72,-10044
5.0323,-860.56,-10008
5.032,-857.52,-9993.9
5.032,-846.36,-10002
5.032,-843.01,-10001
5.032,-843.83,-9999.6
5.032,-843.35,-10017
5.0313,-847.88,-10038
5.031,-848.74,-10046
5.0303,-848.24,-10049
5.03,-847.58,-10044
5.03,-855.78,-10046
5.03,-860.22,-10056
5.03,-852.98,-10061
5.0293,-860.15,-10069
5.0297,-874.17,-10072
5.03,-885.57,-10065
5.0293,-905.25,-10056
5.029,-918.77,-10054
5.0283,-932.92,-10047
5.028,-917.69,-10052
5.028,-856.36,-10061
5.028,-751.35,-10066
5.0287,-688,-10074
5.029,-626.06,-10076
5.0283,-536.68,-10082
5.0273,-445.09,-10092
5.027,-360.29,-10095
5.027,-258.47,-10103
5.027,-91.671,-10105
5.027,88.493,-10107
5.0263,284.58,-10111
5.026,583.45,-10125
5.026,883.04,-10129
5.0267,1119.1,-10121
5.0263,1192.9,-10114
5.026,1084.3,-10121
5.0253,774.2,-10092
5.025,415.65,-10032
5.025,56.961,-9986.6
5.0243,-275.81,-9980.4
5.024,-513.34,-9959.3
5.024,-695.88,-9982.6
5.024,-875.75,-10031
5.024,-990.36,-10028
5.024,-1068.4,-10020
5.024,-1096.2,-9997.8
5.024,-1073.2,-9991.1
5.0233,-1007.2,-9985.6
5.0223,-930.39,-9981.2
5.022,-864.84,-10015
5.022,-810.89,-10029
5.022,-769.47,-10039
5.022,-752.8,-10056
5.022,-731.38,-10053
5.022,-731.42,-10056
5.022,-739.73,-10055
5.022,-742.33,-10070
5.0213,-760.95,-10084
5.021,-759.76,-10081
5.0203,-772.74,-10092
5.02,-786.95,-10092
5.02,-789.32,-10092
5.02,-789.52,-10085
5.02,-782.49,-10057
5.02,-775.54,-10061
5.0193,-775.46,-10077
5.019,-774.66,-10091
5.019,-769.76,-10099
5.0183,-769.1,-10102
5.018,-766.17,-10120
5.018,-764.24,-10123
5.018,-764.46,-10107
5.018,-766.4,-10093
5.018,-753.84,-10071
5.018,-752.13,-10037
5.0173,-758.81,-10035
5.017,-758.15,-10053
5.017,-758.4,-10052
5.017,-755.38,-10057
5.0163,-758.05,-10068
5.0167,-757.99,-10065
5.0163,-756.61,-10047
5.016,-756.11,-10037
5.0153,-751.38,-10047
5.0157,-742.66,-10077
5.0153,-738.63,-10116
5.015,-733.48,-10137
5.015,-727.36,-10140
5.0143,-732.29,-10106
5.0147,-725.41,-10070
5.0143,-720.63,-10026
5.014,-719.52,-9983.4
5.014,-718.71,-9973.6
5.0133,-713.3,-9984.6
5.0137,-709.78,-10010
5.0147,-704.44,-10034
5.0137,-697.55,-10054
5.013,-698.57,-10077
5.0123,-696.31,-10087
5.0127,-694.84,-10108
5.0123,-688.77,-10115
5.0127,-686.17,-10090
5.0123,-686.75,-10066
5.012,-678.24,-10044
5.0113,-666.31,-10011
5.0117,-655.26,-10018
5.0113,-655.46,-10035
5.011,-646.68,-10051
5.011,-640.42,-10056
5.011,-640.14,-10080
5.011,-640.27,-10086
5.011,-633.87,-10075
5.0103,-621.95,-10104
5.01,-613.89,-10138
5.01,-608.81,-10116
5.01,-601.02,-10100
5.01,-593.29,-10079
5.01,-581.26,-10060
5.01,-574.39,-10057
5.0093,-570.77,-10052
5.0083,-561.12,-10045
5.008,-542.69,-10062
5.008,-541.01,-10099
5.008,-538.57,-10099
5.008,-527.6,-10074
5.008,-514.92,-10081
5.008,-508.25,-10094
5.008,-491.76,-10080
5.0073,-479.37,-10050
5.007,-469.15,-10024
5.007,-461.22,-10035
5.0063,-451.5,-10044
5.0053,-446.61,-10062
5.0057,-440.31,-10077
5.006,-419.51,-10078
5.0053,-405.46,-10080
5.005,-387.18,-10111
5.005,-376.73,-10151
5.005,-373.24,-10150
5.005,-369.87,-10123
5.0043,-362.12,-10104
5.0047,-347.89,-10075
5.0043,-337.94,-10009
5.004,-333.54,-10009
5.004,-326.04,-10040
5.004,-319.51,-10040
5.004,-306.11,-10035
5.004,-300.5,-10028
5.0033,-283.25,-10018
5.003,-277.82,-10022
5.003,-284.84,-10027
5.003,-280.79,-10046
5.0023,-276.79,-10076
5.0027,-271.87,-10104
5.0023,-274.51,-10136
5.002,-264.63,-10173
5.002,-256.46,-10148
5.0027,-260.36,-10098
5.0017,-261.64,-10086
5.0017,-268.44,-10053
5.0013,-274.63,-10036
5.001,-282.27,-10030
5.001,-292.56,-10042
5.0003,-297.59,-10058
5,-314.46,-10051
5,-325.41,-10072
5,-340.69,-10090
5,-366.87,-10084
5,-382.86,-10080
4.9993,-398.01,-10066
4.999,-421.71,-10055
4.999,-449.82,-10039
4.9983,-472.06,-10029
4.9987,-492.28,-10039
4.999,-518.23,-10051
4.9983,-537.83,-10056
4.9987,-559.22,-10064
4.9983,-579.18,-10072
4.998,-596.97,-10082
4.998,-613.73,-10096
4.998,-640.37,-10092
4.998,-656.59,-10087
4.9973,-670.99,-10075
4.997,-688.3,-10069
4.997,-706.35,-10048
4.9963,-720.96,-10043
4.996,-730.8,-10050
4.996,-740.25,-10072
4.996,-746.55,-10108
4.996,-756.71,-10124
4.996,-762.46,-10123
4.996,-785.4,-10127
4.996,-803.8,-10111
4.9953,-809.02,-10111
4.9943,-815.09,-10087
4.9947,-824.62,-10070
4.995,-827.49,-10053
4.9943,-834,-10044
4.9947,-839.52,-10010
4.9943,-838.81,-9992.3
4.994,-844.57,-10004
4.9933,-852.65,-9997
4.993,-851.86,-10016
4.993,-854.97,-10038
4.993,-855.32,-10029
4.993,-853.07,-10028
4.993,-850.01,-10040
4.993,-846.71,-10033
4.993,-853.36,-10036
4.9923,-855.69,-10042
4.992,-860.39,-10053
4.992,-858.62,-10058
4.9913,-860.68,-10066
4.9917,-857.14,-10068
4.992,-861.83,-10071
4.9913,-863.32,-10073
4.9903,-865.9,-10071
4.9907,-868.06,-10064
4.9917,-865.79,-10078
4.9906,-877.8,-10118
4.99,-876.27,-10138
4.99,-868.66,-10133
4.99,-874.04,-10132
4.99,-867.04,-10130
4.9893,-860.07,-10093
4.9897,-866.86,-10055
4.9893,-862.21,-10063
4.989,-868.41,-10077
4.9897,-866.94,-10074
4.9893,-860.23,-10074
4.9883,-858.05,-10120
4.9887,-856.33,-10102
4.9883,-857.42,-10051
4.988,-858.78,-10018
4.988,-857.87,-9993.6
4.988,-869.93,-9984.3
4.9873,-868.02,-9978.6
4.9877,-858.83,-10017
4.988,-862.4,-10060
4.9873,-856.69,-10074
4.9877,-862.73,-10084
4.9866,-866.13,-10074
4.9867,-870.63,-10072
4.987,-871.84,-10068
4.987,-862.01,-10065
4.9863,-871.1,-10069
4.986,-862.22,-10074
4.986,-863.15,-10084
4.986,-864.59,-10082
4.986,-864.92,-10078
4.9853,-861.7,-10067
4.985,-860.93,-10063
4.9857,-868.54,-10069
4.9846,-866.28,-10096
4.9847,-868.48,-10100
4.9843,-872.63,-10099
4.9847,-869.54,-10070
4.9843,-868.97,-10040
4.9833,-863.9,-10030
4.9837,-865.2,-10006
4.984,-866.97,-10001
4.9833,-866.5,-10025
4.983,-879.08,-10046
4.983,-876.63,-10060
4.983,-880.67,-10060
4.983,-884.49,-10082
4.983,-886.49,-10106
4.983,-885.5,-10109
4.9823,-878.2,-10115
4.982,-878.25,-10119
4.982,-879.85,-10097
4.9813,-876.39,-10074
4.9817,-877.31,-10036
4.9813,-881.23,-10025
4.981,-885.69,-10015
4.981,-895.38,-10028
4.981,-895.56,-10069
4.981,-896.3,-10078
4.9803,-890.82,-10101
4.9807,-890.59,-10109
4.981,-891.37,-10091
4.9803,-901.94,-10101
4.98,-899.53,-10082
4.98,-899.69,-10045
4.98,-906.98,-10051
4.9793,-909.28,-10051
4.979,-907.75,-10060
4.979,-914.01,-10070
4.9797,-909.79,-10076
4.98,-906.14,-10082
4.98,-904.2,-10079
4.9793,-907.52,-10075
4.9783,-911.59,-10049
4.978,-919.83,-10062
4.978,-924.36,-10121
4.978,-928.04,-10111
4.978,-932.84,-10100
4.9787,-925.47,-10092
4.9783,-919.92,-10063
4.978,-924.05,-10033
4.978,-921.46,-10016
4.978,-920.67,-10033
4.9773,-922.55,-10043
4.977,-924.47,-10039
4.977,-928.2,-10050
4.977,-932.28,-10043
4.977,-933.36,-10031
4.977,-936.48,-10032
4.977,-934.84,-10050
4.977,-933.7,-10053
4.977,-933.67,-10058
4.977,-924.74,-10075
4.9763,-927.97,-10064
4.976,-931.45,-10058
4.9753,-941.82,-10075
4.975,-944.43,-10091
4.9757,-946.78,-10099
4.9753,-948.66,-10113
4.975,-944.68,-10113
4.9757,-936.5,-10107
4.9753,-934.53,-10085
4.9757,-937.74,-10080
4.9753,-937.45,-10087
4.9743,-942.34,-10071
4.974,-952.19,-10059
4.974,-943.73,-10061
4.974,-941.72,-10057
4.974,-942.29,-10046
4.974,-938.44,-10056
4.974,-938.58,-10072
4.974,-938.57,-10064
4.9733,-935.44,-10040
4.973,-936.12,-10025
4.973,-933.81,-10022
4.973,-943.27,-10019
4.9723,-946.6,-10031
4.9727,-943.96,-10041
4.973,-952.74,-10042
4.973,-945.77,-10032
4.9723,-943.12,-10049
4.9727,-947.16,-10063
4.9723,-948.9,-10071
4.9727,-952.95,-10096
4.9723,-952.06,-10113
4.972,-949.59,-10115
4.972,-948.83,-10108
4.9713,-951.27,-10107
4.9717,-944.61,-10097
4.972,-950.2,-10093
4.972,-949.91,-10069
4.9713,-941.7,-10053
4.971,-937.48,-10054
4.9717,-942.1,-10037
4.9713,-934.22,-10023
4.971,-939.91,-10021
4.971,-946.68,-10028
4.971,-945,-10044
4.9703,-945.97,-10057
4.97,-948.03,-10059
4.9707,-944.94,-10059
4.9703,-941.9,-10072
4.97,-945.09,-10087
4.97,-941.89,-10087
4.97,-940.87,-10090
4.97,-942.13,-10078
4.97,-952.53,-10063
4.9693,-945,-10058
4.969,-950.05,-10048
4.969,-968.2,-10083
4.969,-963.24,-10118
4.969,-960.47,-10149
4.969,-964.37,-10149
4.9697,-961.93,-10131
4.9693,-954.97,-10133
4.969,-956.72,-10088
4.9683,-958.44,-10037
4.968,-955.77,-10025
4.9687,-951.73,-10000
4.9683,-949.69,-9982.7
4.9687,-958.2,-9995.6
4.969,-952.96,-10003
4.969,-950.54,-10028
4.9683,-949.16,-10037
4.9687,-945.65,-10060
4.9683,-947.2,-10073
4.968,-953.29,-10056
4.968,-958.98,-10044
4.968,-950.26,-10045
4.9673,-960.6,-10049
4.9677,-961.29,-10055
4.9673,-948.36,-10058
4.9677,-945.99,-10076
4.9673,-951.17,-10069
4.967,-948.24,-10060
4.967,-951.56,-10041
4.967,-950.8,-10023
4.967,-946.64,-10033
4.967,-942.43,-10038
4.9663,-944.62,-10054
4.9667,-948.06,-10061
4.967,-948.14,-10045
4.967,-948.77,-10029
4.967,-945.35,-10030
4.967,-945.21,-10027
4.9663,-952.51,-10035
4.966,-960.61,-10057
4.9667,-956.18,-10095
4.9663,-951.03,-10109
4.966,-953.21,-10099
4.966,-960.03,-10086
4.966,-950.85,-10072
4.966,-944.04,-10071
4.966,-952.44,-10060
4.966,-957.97,-10064
4.966,-953.46,-10069
4.966,-956.78,-10068
4.9653,-966.86,-10101
4.965,-969.67,-10117
4.965,-966.8,-10116
4.965,-962.6,-10101
4.965,-966.46,-10077
4.9657,-963.13,-10046
4.966,-957.17,-10048
4.9653,-957.42,-10082
4.965,-956.12,-10149
4.9657,-957.7,-10167
4.9653,-956.32,-10143
4.965,-964.63,-10114
4.9643,-963.27,-10030
4.964,-966.22,-9990.7
4.964,-963.85,-10010
4.9647,-963.63,-10014
4.965,-960.8,-10025
4.965,-955.01,-10033
4.9643,-956.07,-10017
4.964,-954.21,-10012
4.964,-962.05,-10021
4.964,-957.78,-10028
4.964,-955.06,-10035
4.964,-955.1,-10026
4.964,-950.33,-10057
4.964,-947.47,-10064
4.964,-949.47,-10058
4.964,-951.35,-10059
4.964,-950.11,-10059
4.964,-945.29,-10052
4.964,-949.55,-10061
4.9633,-956.21,-10071
4.963,-951.14,-10077
4.9637,-946.29,-10072
4.964,-953.48,-10053
4.9633,-951.98,-10049
4.9637,-952.11,-10043
4.964,-953.78,-10040
4.964,-956.7,-10046
4.964,-962.22,-10063
4.964,-957.3,-10054
4.9633,-964.62,-10043
4.963,-969.83,-10043
4.963,-960.87,-10035
4.963,-970.7,-10032
4.963,-970.46,-10018
4.963,-962.96,-10043
4.9637,-952.17,-10056
4.9633,-957.66,-10051
4.963,-956.97,-10055
4.963,-955.89,-10066
4.963,-956.09,-10074
4.963,-963.05,-10070
4.9623,-965.11,-10070
4.962,-960.13,-10067
4.9634,-946.89,-10052
4.9633,-935.01,-10062
4.963,-931.53,-10074
4.963,-916.25,-10057
4.963,-901.41,-10063
4.963,-891.65,-10067
4.9623,-899.15,-10043
4.9627,-897.19,-10019
4.9623,-891.24,-10017
4.962,-900.78,-10032
4.962,-908.15,-10042
4.962,-900.14,-10055
4.9627,-899.07,-10060
4.963,-897.46,-10077
4.9623,-873.66,-10068
4.962,-847.16,-10060
4.9627,-818.38,-10067
4.9623,-804.92,-10092
4.962,-780.82,-10106
4.9613,-762.28,-10113
4.9617,-762.11,-10105
4.962,-765.15,-10069
4.962,-771.75,-10047
4.9627,-783.31,-10041
4.963,-800.38,-10039
4.9623,-797.95,-10043
4.9627,-801.37,-10058
4.9623,-815.87,-10085
4.962,-828.61,-10092
4.962,-841.98,-10098
4.9613,-841.9,-10089
4.9617,-852.93,-10056
4.962,-857.77,-10020
4.962,-876.56,-10016
4.962,-896.67,-10043
4.962,-915.73,-10037
4.962,-917.1,-10046
4.962,-919.56,-10070
4.9613,-914.96,-10063
4.961,-923.54,-10047
4.9617,-947.24,-10022
4.9613,-945.34,-10002
4.9617,-943.22,-10003
4.962,-945.39,-10016
4.962,-945.26,-10013
4.9613,-946.08,-10023
4.9617,-946.57,-10040
4.9613,-948.22,-10050
4.961,-956.68,-10073
4.961,-960.14,-10108
4.961,-956.42,-10117
4.961,-966.89,-10096
4.961,-967.2,-10070
4.9617,-965.67,-10077
4.962,-962.58,-10085
4.962,-966.24,-10069
4.962,-969.28,-10066
4.962,-971,-10058
4.962,-982.56,-10059
4.962,-979.24,-10019
4.9613,-982.19,-9985.6
4.9617,-985.8,-9996.9
4.962,-979.98,-10023
4.962,-971.56,-10025
4.962,-971.21,-10023
4.962,-972,-10025
4.962,-969.27,-10052
4.9613,-976.81,-10070
4.961,-975.17,-10066
4.9617,-973.87,-10068
4.962,-969.37,-10057
4.9613,-978.59,-10037
4.9617,-976.71,-10021
4.9613,-978.79,-10030
4.9617,-971.19,-10055
4.962,-971.21,-10053
4.962,-965.56,-10049
4.962,-966.89,-10059
4.9613,-969.88,-10074
4.961,-971.95,-10095
4.961,-977.66,-10084
4.961,-978.51,-10066
4.9617,-976.86,-10047
4.962,-968.87,-10025
4.9613,-968.99,-10051
4.9617,-967.83,-10082
4.962,-964.99,-10086
4.962,-959.93,-10071
4.962,-971.31,-10054
4.962,-974.51,-10021
4.9613,-969.72,-10017
4.961,-975.94,-10007
4.961,-980.03,-9979.6
4.9617,-976.4,-9988.9
4.962,-980.42,-10016
4.962,-988.35,-10033
4.962,-999.37,-10042
4.962,-1014.4,-10051
4.9627,-1034.7,-10065
4.9623,-1057.4,-10071
4.962,-1067.1,-10065
4.962,-1026.8,-10046
4.9613,-950.21,-10025
4.9617,-876.76,-10035
4.9613,-837.42,-10058
4.9617,-745.17,-10069
4.962,-655.32,-10072
4.962,-578.33,-10112
4.962,-462.61,-10134
4.962,-340.12,-10137
4.962,-177.23,-10124
4.9627,41.044,-10125
4.9623,287.33,-10090
4.962,606.13,-10053
4.962,866.47,-10037
4.962,1019.1,-10038
4.9627,981.1,-10050
4.9623,753.2,-10038
4.962,407.01,-10006
4.962,83.996,-9969.8
4.962,-258.72,-9943.6
4.9613,-505.08,-9910.1
4.9617,-694.98,-9900
4.962,-874.76,-9909.5
4.9627,-1032.7,-9930.8
4.963,-1144.2,-9963.1
4.963,-1222.9,-9985.1
4.963,-1237.3,-10000
4.963,-1186.5,-10048
4.9623,-1111.5,-10067
4.962,-1026.9,-10049
4.962,-963.18,-10037
4.962,-907.37,-10046
4.962,-874.9,-10057
4.9627,-855.9,-10062
4.963,-830.87,-10053
4.963,-835.82,-10060
4.963,-845.84,-10046
4.9623,-852.23,-10029
4.9627,-870.83,-10033
4.9623,-879.77,-10051
4.962,-882.77,-10057
4.9627,-878.75,-10038
4.9623,-875.96,-10054
4.9627,-881.21,-10063
4.963,-877.72,-10042
4.963,-877.86,-10034
4.9637,-878.63,-10034
4.964,-874.32,-10019
4.964,-874.66,-10009
4.9633,-873.67,-10002
4.963,-868.1,-10032
4.9623,-868.48,-10054
4.9627,-866.91,-10076
4.9637,-867.09,-10094
4.9633,-860.78,-10076
4.9637,-854.97,-10041
4.9633,-850.4,-10007
4.963,-845.45,-10005
4.9637,-845.5,-10014
4.9633,-849.94,-10045
4.963,-843.66,-10089
4.963,-851.46,-10102
4.963,-843.11,-10080
4.963,-841.21,-10069
4.9637,-840.68,-10042
4.964,-838.3,-10027
4.9633,-837.32,-10025
4.9637,-826.64,-10015
4.964,-820.01,-10015
4.9633,-818.49,-10030
4.9637,-815.52,-10037
4.964,-812.49,-10053
4.964,-807.96,-10081
4.9633,-808.06,-10099
4.9637,-802.68,-10088
4.964,-795.3,-10065
4.964,-782.21,-10041
4.9647,-783.71,-10029
4.9643,-782.08,-10019
4.964,-779.29,-10008
4.964,-777.29,-10003
4.964,-777.22,-10003
4.964,-774.36,-9996.5
4.9647,-765.69,-9988.6
4.9643,-766.49,-10012
4.964,-756.48,-10044
4.9647,-753.12,-10065
4.9643,-746.03,-10070
4.9647,-746.68,-10059
4.965,-740.73,-10055
4.9643,-733.6,-10023
4.964,-730.42,-10013
4.964,-718.87,-10017
4.9647,-719.92,-10041
4.965,-716.86,-10050
4.965,-708,-10065
4.965,-698.82,-10067
4.965,-686.17,-10070
4.965,-676.41,-10081
4.965,-673.14,-10086
4.9643,-672.86,-10072
4.964,-667.03,-10096
4.964,-652.42,-10097
4.9647,-646.23,-10070
4.965,-640.05,-10060
4.965,-628.15,-10065
4.965,-604.01,-10043
4.9657,-599.23,-10046
4.9653,-586.6,-10067
4.965,-582.95,-10065
4.965,-575.17,-10068
4.965,-571.57,-10060
4.965,-569.6,-10043
4.965,-563.07,-10023
4.965,-549.32,-10028
4.965,-535.81,-10024
4.965,-523.66,-10067
4.9657,-511.38,-10099
4.966,-491.26,-10094
4.9653,-479.79,-10097
4.965,-478.36,-10097
4.965,-475.42,-10060
4.965,-460.11,-10011
4.965,-452.36,-9989.2
4.9657,-447.49,-9988.1
4.966,-440.63,-9994
4.966,-426.72,-10024
4.966,-420.02,-10056
4.966,-415.96,-10051
4.966,-407.91,-10046
4.966,-409.83,-10051
4.966,-404.43,-10052
4.966,-397.88,-10058
4.966,-390.68,-10072
4.966,-383.58,-10076
4.966,-379.04,-10105
4.9667,-376.09,-10108
4.967,-376.51,-10081
4.967,-374.21,-10067
4.967,-368.26,-10067
4.9663,-375.77,-10058
4.966,-389.89,-10038
4.966,-401.59,-10048
4.966,-410.84,-10035
4.9667,-426.84,-10023
4.967,-446.09,-10042
4.9663,-457.15,-10061
4.966,-468.04,-10055
4.966,-485.48,-10032
4.9667,-502.35,-10033
4.967,-525.79,-10035
4.9663,-550.51,-10037
4.9667,-572.39,-10054
4.967,-592.65,-10067
4.967,-612.42,-10069
4.9663,-631.12,-10058
4.9667,-647.93,-10052
4.967,-665.09,-10076
4.967,-686.47,-10110
4.967,-698.35,-10094
4.9677,-718.32,-10074
4.968,-736.02,-10037
4.9673,-757.48,-10017
4.9663,-781.5,-9995.3
4.9667,-796.64,-9993.5
4.967,-808.9,-10032
4.967,-821.44,-10066
4.9677,-830.41,-10067
4.9673,-840.79,-10061
4.967,-850.08,-10043
4.967,-853.65,-10012
4.9677,-870.68,-9989.8
4.9673,-877.66,-10002
4.967,-882.18,-10018
4.967,-885.17,-10016
4.967,-897,-10019
4.967,-902.24,-10027
4.9677,-900.89,-10047
4.968,-907.18,-10069
4.968,-914.22,-10095
4.968,-914.58,-10093
4.968,-921.8,-10079
4.968,-925.25,-10060
4.968,-917.39,-10032
4.968,-922.56,-10024
4.968,-933.24,-10014
4.968,-932.15,-10031
4.968,-934.07,-10050
4.968,-937.4,-10036
4.9687,-938.46,-10045
4.969,-936.12,-10050
4.969,-934.99,-10057
4.9676,-934.14,-10061
4.9677,-942.03,-10062
4.968,-942.53,-10069
4.968,-935.4,-10052
4.968,-934.15,-10055
4.968,-939.16,-10064
4.9687,-930.87,-10048
4.969,-930.28,-10022
4.969,-932.69,-10013
4.969,-922.31,-10002
4.9683,-926.49,-10003
4.968,-937.38,-10049
4.968,-942.08,-10077
4.968,-937.19,-10081
4.968,-938.61,-10059
4.9687,-943.12,-10036
4.969,-936.93,-10018
4.969,-937.29,-10002
4.969,-935.63,-9996.5
4.9697,-938.13,-10015
4.9685,-940.7,-10049
4.9687,-940.71,-10058
4.969,-941.13,-10057
4.969,-937.76,-10059
4.969,-939.48,-10055
4.969,-943.52,-10044
4.969,-930.55,-10040
4.9697,-926.99,-10062
4.97,-926.23,-10074
4.9693,-930.69,-10072
4.969,-930.47,-10064
4.9683,-926.37,-10050
4.9687,-934.59,-10039
4.9697,-929.4,-10033
4.97,-932.81,-10023
4.9693,-937.81,-10005
4.969,-936.35,-10023
4.9697,-930.56,-10024
4.97,-932.8,-10025
4.97,-934.29,-10036
4.97,-928.54,-10037
4.97,-931.08,-10041
4.97,-927.53,-10044
4.9693,-919.66,-10050
4.969,-921.82,-10043
4.9697,-930.64,-10042
4.97,-927.23,-10061
4.97,-928.49,-10100
4.97,-935.79,-10108
4.97,-931.39,-10083
4.97,-934.04,-10079
4.97,-936.74,-10047
4.97,-945.24,-10009
4.9693,-946.16,-10005
4.969,-946.02,-10005
4.9697,-940.05,-10009
4.97,-944,-10007
4.97,-942.12,-10021
4.9707,-947.97,-10047
4.971,-942.92,-10057
4.9703,-940.16,-10045
4.97,-946.31,-10037
4.97,-948.62,-10011
4.97,-949.71,-9997
4.97,-948.48,-10002
4.9707,-952.83,-10023
4.9703,-947.86,-10041
4.9707,-953.25,-10051
4.9703,-956.23,-10070
4.9707,-961.35,-10079
4.971,-958.03,-10072
4.9717,-959.93,-10071
4.9705,-967.32,-10065
4.9707,-960.41,-10072
4.971,-963.02,-10044
4.971,-970.12,-10000
4.971,-965.98,-9975.6
4.971,-962.29,-10001
4.971,-966.32,-10032
4.9717,-968.84,-10042
4.9713,-968.98,-10053
4.971,-965.08,-10037
4.971,-968.7,-10026
4.971,-967.55,-10010
4.971,-970.08,-9994.3
4.971,-974.26,-10001
4.971,-981.54,-10021
4.971,-976.59,-10071
4.971,-980.18,-10088
4.9717,-978.06,-10063
4.9705,-988.7,-10039
4.9707,-983.77,-10027
4.9717,-985.66,-9995.5
4.9713,-986.98,-9999.1
4.971,-985.04,-10017
4.971,-980.84,-10029
4.971,-985.1,-10051
4.9717,-982.57,-10074
4.972,-979.29,-10062
4.972,-981.96,-10073
4.972,-986.97,-10068
4.9727,-985,-10038
4.973,-993.9,-10013
4.9715,-988.16,-10012
4.9717,-986.57,-10004
4.972,-994.21,-9978.7
4.9713,-985.03,-9991.8
4.9717,-987.35,-10006
4.972,-986.38,-10018
4.9727,-984.12,-10032
4.973,-981.77,-10050
4.9723,-991.06,-10049
4.9727,-987.79,-10044
4.9723,-993.02,-10049
4.9727,-996.5,-10047
4.9723,-1002,-10032
4.972,-1002.1,-10017
4.972,-1001.7,-10037
4.9727,-1003.7,-10053
4.973,-999.42,-10047
4.9723,-991.71,-10072
4.9727,-985.4,-10099
4.9723,-986.88,-10083
4.972,-991.16,-10054
4.9727,-986.82,-10038
4.9723,-993.9,-10029
4.9727,-995.78,-10000
4.9723,-990.77,-9982.5
4.9735,-992.7,-9990.4
4.9733,-984.45,-10010
4.9737,-980.89,-10029
4.9733,-988.14,-10042
4.973,-984.39,-10036
4.973,-979.82,-10038
4.973,-989.24,-10042
4.973,-987.71,-10044
4.9737,-988.39,-10037
4.9733,-986.45,-10037
4.973,-988.23,-10057
4.9737,-990.24,-10041
4.9733,-985.45,-10033
4.9737,-991.95,-10022
4.974,-988.37,-10002
4.974,-995.74,-10015
4.974,-1001.1,-10031
4.974,-998.35,-10040
4.9733,-1000.6,-10036
4.9737,-1005.4,-10044
4.974,-1003.7,-10070
4.974,-997.84,-10081
4.974,-998.54,-10094
4.974,-1000.3,-10119
4.9747,-990.47,-10108
4.9735,-983.49,-10060
4.9737,-995.52,-10007
4.9747,-1001.5,-9984.7
4.9743,-988.78,-9970.2
4.974,-994.76,-9978.2
4.974,-996.43,-10007
4.9747,-992.25,-10027
4.975,-987.61,-10044
4.975,-986.01,-10047
4.975,-989.55,-10049
4.975,-984.77,-10038
4.975,-979.27,-10008
4.975,-984.56,-9993.5
4.975,-980.33,-10002
4.975,-983.3,-10008
4.9743,-980.05,-10025
4.9747,-981.63,-10040
4.9757,-985.34,-10055
4.9753,-989.57,-10077
4.9757,-992.2,-10086
4.976,-991.03,-10076
4.976,-990.74,-10057
4.9753,-991.13,-10084
4.9757,-990.42,-10103
4.9753,-997.42,-10048
4.975,-995.82,-10026
4.975,-999.53,-10022
4.9757,-999.23,-9993.6
4.976,-1004.6,-9957.7
4.976,-1004.6,-9965.9
4.976,-1003,-9985.1
4.9768,-1003.8,-10018
4.9763,-1007.1,-10017
4.976,-1011.6,-10029
4.976,-1007.8,-10030
4.9768,-1004.3,-10036
4.977,-1009.1,-10043
4.977,-1004.4,-10033
4.977,-1000.9,-10032
4.9778,-997.51,-10038
4.9772,-993.69,-10039
4.977,-997.72,-10040
4.9778,-1003.2,-10045
4.9772,-1007.9,-10058
4.977,-1006,-10072
4.977,-1008.3,-10058
4.9778,-1012.1,-10037
4.978,-1008.3,-10027
4.9772,-996.27,-10023
4.9778,-1001.1,-10019
4.9772,-1000.4,-10002
4.9778,-1001,-9996.9
4.978,-1005.2,-10022
4.978,-1006.5,-10042
4.9772,-1004.8,-10045
4.977,-1006.4,-10059
4.9778,-1010.7,-10075
4.9787,-1009.3,-10060
4.979,-1009.4,-10047
4.979,-1010.9,-10056
4.979,-1003.8,-10051
4.9798,-1008.7,-10068
4.9793,-1028.3,-10102
4.9783,-1037.7,-10128
4.9787,-1028.1,-10106
4.979,-1028.4,-10067
4.9798,-1027.7,-10020
4.9793,-1032.1,-9996.1
4.9798,-1036.3,-9981.7
4.98,-1033.8,-9976.1
4.98,-1030.1,-9999.6
4.98,-1034.9,-10008
4.98,-1039,-10005
4.98,-1040.4,-10012
4.98,-1040.2,-10033
4.98,-1036,-10057
4.98,-1042.3,-10070
4.98,-1048,-10069
4.9807,-1040.9,-10054
4.981,-1043.3,-10033
4.981,-1046.6,-10005
4.9802,-1044.8,-9991.1
4.9807,-1046.3,-10020
4.981,-1053.8,-10032
4.981,-1055.3,-10037
4.981,-1055.8,-10048
4.981,-1055.5,-10056
4.981,-1058.5,-10041
4.981,-1053.5,-10041
4.9817,-1048.4,-10035
4.982,-1049.3,-10021
4.982,-1047.4,-10007
4.982,-1044.4,-10006
4.9813,-1047.3,-10002
4.9817,-1045.3,-10018
4.982,-1051.8,-10027
4.982,-1048.8,-10047
4.9828,-1043.1,-10064
4.983,-1044.3,-10060
4.983,-1048,-10045
4.983,-1043,-10029
4.983,-1040.3,-10028
4.9838,-1037.6,-10019
4.9832,-1040.4,-10012
4.983,-1040,-10013
4.983,-1039.7,-10039
4.9838,-1046.8,-10049
4.984,-1050.5,-10059
4.984,-1051.9,-10057
4.984,-1036.6,-10045
4.9848,-1032.6,-10028
4.985,-1025.7,-10016
4.985,-1009.3,-10007
4.9842,-999.16,-10015
4.984,-1005.9,-10026
4.9848,-1005.8,-10045
4.9842,-996.57,-10053
4.9855,-991.08,-10052
4.9852,-991.89,-10034
4.9858,-991.09,-10031
4.9845,-990.27,-10049
4.9848,-998.64,-10067
4.9858,-982.24,-10069
4.9852,-952.2,-10083
4.985,-929.24,-10084
4.985,-911.93,-10070
4.9858,-892.17,-10060
4.986,-873.15,-10049
4.9868,-852.36,-10034
4.9862,-853.23,-10027
4.9868,-863.74,-10021
4.987,-882.71,-10023
4.987,-905.32,-10042
4.987,-907.92,-10053
4.987,-914.03,-10032
4.987,-914.03,-10029
4.9862,-930.77,-10041
4.9875,-938.16,-10030
4.9872,-948.67,-10016
4.9878,-954.87,-10072
4.988,-954.54,-10085
4.988,-965.83,-10094
4.988,-987.57,-10126
4.9888,-1007.8,-10116
4.989,-1014.3,-10079
4.9882,-1014,-10011
4.988,-1017.9,-9962.4
4.9888,-1037,-9971.2
4.989,-1058.4,-9978.7
4.989,-1063.9,-10007
4.989,-1062.4,-10034
4.989,-1057.5,-10048
4.9898,-1063.1,-10021
4.99,-1060.6,-10005
4.99,-1065.6,-9990.9
4.99,-1063.2,-10007
4.99,-1063.8,-10026
4.99,-1069,-10043
4.99,-1073.6,-10070
4.9908,-1078.9,-10093
4.991,-1075.2,-10096
4.991,-1077,-10066
4.991,-1078.3,-10043
4.9918,-1084.7,-10003
4.9912,-1083.2,-9996.6
4.991,-1086,-9995.4
4.9918,-1085.8,-10009
4.9912,-1082.1,-10054
4.9918,-1090.3,-10078
4.992,-1086.8,-10070
4.992,-1080.4,-10068
4.9912,-1085,-10037
4.9918,-1088.5,-10008
4.9928,-1082.8,-9976.5
4.9922,-1079.2,-9985.5
4.9912,-1081,-10029
4.9925,-1076.3,-10060
4.9922,-1074.1,-10067
4.9928,-1078.5,-10076
4.9922,-1086.8,-10064
4.992,-1096.2,-10044
4.9928,-1085,-10017
4.993,-1089.4,-10009
4.993,-1091.2,-10030
4.993,-1094,-10049
4.993,-1092,-10046
4.993,-1096.5,-10048
4.993,-1098.7,-10028
4.993,-1095.6,-9994.6
4.993,-1093.7,-9976.1
4.993,-1090,-9998.8
4.9938,-1077.2,-10041
4.994,-1081.6,-10061
4.994,-1079.7,-10050
4.994,-1076.9,-10014
4.9932,-1083.5,-9990.2
4.9938,-1075.4,-9988.1
4.994,-1070.7,-9973.4
4.994,-1069.8,-9984.6
4.994,-1080.5,-9990.6
4.9932,-1081.7,-10025
4.9945,-1078.1,-10032
4.9942,-1083.7,-10080
4.994,-1093.9,-10105
4.994,-1106.6,-10092
4.9932,-1124.6,-10079
4.993,-1151.3,-10066
4.9938,-1179,-10048
4.9932,-1172.2,-10017
4.9938,-1128.8,-9982.4
4.994,-1037.1,-9981.4
4.9932,-989.94,-10007
4.9938,-960.22,-10024
4.9932,-855.45,-10010
4.993,-760.04,-10019
4.9922,-669.48,-10045
4.992,-532.3,-10051
4.992,-397.21,-10070
4.992,-221.02,-10088
4.992,-8.417,-10104
4.992,251.76,-10098
4.9912,565.54,-10071
4.991,777.04,-10060
4.9902,893.39,-10036
4.99,824.63,-10025
4.9892,548.1,-10025
4.9882,200.98,-10002
4.988,-110.78,-9996
4.9865,-429.05,-9981.4
4.986,-626.42,-9939.5
4.9852,-812.28,-9922.9
4.985,-985.8,-9937.9
4.985,-1107.7,-9965.7
4.985,-1226.4,-9989.3
4.9835,-1329.2,-10000
4.9822,-1379,-9997.4
4.982,-1343.1,-10000
4.9812,-1265.3,-9994.2
4.981,-1181.6,-9995.2
4.9802,-1098.8,-10005
4.9792,-1043.1,-10020
4.9782,-1009.5,-10016
4.9788,-982.07,-10029
4.9775,-968.65,-10028
4.977,-959.72,-10057
4.977,-960.5,-10099
4.9755,-968.88,-10101
4.975,-984.2,-10088
4.9742,-979.82,-10067
4.9732,-977.22,-10036
4.973,-984.37,-10010
4.9722,-989.02,-10044
4.972,-990.17,-10090
4.972,-985.56,-10085
4.9712,-987.9,-10028
4.971,-988.77,-9998.4
4.9702,-982.28,-10044
4.9692,-983.93,-10045
4.9682,-987.95,-10035
4.9672,-984.47,-10026
4.967,-983.34,-10014
4.9655,-974.85,-10008
4.965,-980.35,-9976.3
4.965,-974.4,-9962.8
4.9642,-970.52,-9989.1
4.9632,-963.66,-9997.5
4.963,-962.38,-9991.1
4.9622,-960.86,-9979.8
4.9612,-964.91,-10021
4.9602,-961.84,-10069
4.96,-954.36,-10102
4.96,-953.86,-10101
4.9592,-947.86,-10098
4.9582,-953.1,-10087
4.9572,-942.71,-10046
4.9562,-937.55,-10029
4.956,-937.31,-10022
4.9544,-925.87,-10003
4.9532,-925.15,-10003
4.9522,-926.98,-10009
4.9512,-926.76,-10005
4.9502,-923.24,-10008
4.95,-919.66,-10012
4.9492,-914.29,-10026
4.949,-911.63,-10026
4.9482,-911.73,-10041
4.9464,-907.94,-10062
4.946,-903.15,-10073
4.9452,-894.36,-10057
4.9442,-897.09,-10039
4.9432,-891.74,-10037
4.9422,-888.59,-10024
4.942,-881.64,-10011
4.9405,-871.16,-10010
4.94,-863.07,-10004
4.9392,-855.35,-10013
4.9382,-858.48,-10037
4.938,-855.87,-10067
4.9372,-850.75,-10075
4.9362,-842.96,-10064
4.9352,-834.52,-10045
4.9342,-830.66,-10035
4.9332,-824.33,-10041
4.9322,-811.08,-10056
4.932,-801.86,-10062
4.9312,-793.7,-10053
4.9302,-784.37,-10082
4.9292,-783.64,-10088
4.9282,-785.93,-10071
4.928,-783.07,-10058
4.9265,-778.61,-10051
4.926,-766.05,-10006
4.9252,-753.24,-9990.6
4.925,-733.68,-10022
4.9242,-723.99,-10045
4.924,-717.23,-10027
4.9232,-705.26,-10027
4.9222,-697.77,-10040
4.9212,-696.88,-10073
4.9202,-694.53,-10064
4.9192,-686.83,-10040
4.9182,-673.33,-10021
4.918,-668.09,-10005
4.9172,-652.77,-10025
4.917,-641.37,-10047
