scl , ecg , emg_trap
7.469,15201,-12204
7.469,15199,-12202
7.469,15195,-12205
7.4695,15190,-12209
7.47,15194,-12199
7.4706,15187,-12199
7.4715,15196,-12203
7.4726,15207,-12203
7.4725,15206,-12199
7.472,15205,-12198
7.4726,15204,-12199
7.4741,15202,-12205
7.475,15200,-12214
7.4756,15193,-12201
7.476,15184,-12204
7.4765,15192,-12211
7.477,15193,-12208
7.477,15195,-12207
7.4775,15200,-12210
7.4786,15189,-12201
7.479,15181,-12194
7.479,15177,-12202
7.4795,15175,-12202
7.48,15171,-12209
7.48,15172,-12213
7.48,15172,-12209
7.48,15170,-12211
7.48,15172,-12209
7.4811,15169,-12206
7.4825,15165,-12213
7.4825,15168,-12211
7.4825,15167,-12209
7.4836,15172,-12205
7.484,15171,-12209
7.4845,15167,-12216
7.4844,15162,-12221
7.4845,15153,-12217
7.4855,15163,-12212
7.486,15172,-12204
7.486,15166,-12203
7.4871,15165,-12209
7.488,15174,-12202
7.4886,15182,-12208
7.489,15194,-12208
7.4901,15211,-12217
7.4905,15220,-12218
7.4894,15228,-12210
7.4907,15245,-12217
7.492,15258,-12211
7.492,15258,-12204
7.4925,15256,-12193
7.4935,15255,-12188
7.494,15248,-12205
7.4951,15246,-12204
7.4966,15238,-12199
7.4959,15229,-12204
7.4955,15231,-12206
7.496,15243,-12207
7.4966,15258,-12205
7.4976,15269,-12211
7.498,15279,-12203
7.4985,15289,-12198
7.4985,15297,-12206
7.4985,15299,-12209
7.5001,15296,-12214
7.5004,15301,-12217
7.5005,15317,-12215
7.501,15321,-12207
7.501,15327,-12208
7.5027,15335,-12207
7.5035,15324,-12210
7.503,15316,-12209
7.5041,15308,-12211
7.505,15296,-12214
7.5061,15298,-12209
7.507,15284,-12217
7.5076,15278,-12222
7.508,15272,-12226
7.508,15257,-12226
7.508,15256,-12221
7.508,15246,-12224
7.5091,15226,-12216
7.5106,15210,-12208
7.511,15199,-12217
7.5116,15187,-12217
7.5126,15171,-12212
7.5136,15159,-12221
7.514,15155,-12218
7.5134,15149,-12221
7.5136,15140,-12226
7.514,15142,-12207
7.5151,15138,-12210
7.516,15130,-12222
7.5165,15120,-12218
7.517,15111,-12213
7.5164,15103,-12216
7.5177,15099,-12222
7.5196,15101,-12221
7.52,15101,-12217
7.5194,15099,-12223
7.5196,15096,-12218
7.52,15099,-12206
7.5206,15099,-12219
7.521,15097,-12215
7.5221,15094,-12211
7.5236,15090,-12225
7.524,15100,-12218
7.524,15097,-12209
7.5246,15085,-12219
7.5256,15086,-12222
7.5266,15091,-12222
7.5259,15091,-12222
7.5256,15092,-12211
7.5266,15092,-12218
7.5281,15084,-12214
7.5296,15079,-12210
7.53,15074,-12206
7.5289,15081,-12211
7.5291,15088,-12217
7.5311,15092,-12214
7.5314,15091,-12208
7.531,15087,-12203
7.5316,15091,-12209
7.532,15094,-12207
7.5337,15093,-12218
7.5344,15087,-12220
7.5346,15080,-12216
7.5356,15070,-12226
7.5354,15071,-12220
7.5361,15056,-12213
7.5359,15031,-12209
7.5361,15005,-12194
7.5381,14989,-12193
7.5379,14978,-12208
7.5381,14979,-12220
7.5401,14983,-12228
7.541,14998,-12224
7.541,15055,-12223
7.5416,15134,-12230
7.5426,15242,-12220
7.5424,15383,-12221
7.5426,15581,-12212
7.5436,15800,-12195
7.5446,16021,-12190
7.5444,16219,-12196
7.5446,16390,-12191
7.5467,16531,-12191
7.5474,16650,-12197
7.5481,16799,-12197
7.5484,16883,-12197
7.5486,16892,-12210
7.5496,16887,-12218
7.55,16826,-12216
7.55,16677,-12222
7.5506,16548,-12234
7.5516,16425,-12240
7.552,16232,-12247
7.5526,15984,-12244
7.5536,15756,-12245
7.5534,15579,-12248
7.5541,15441,-12239
7.555,15334,-12235
7.5561,15259,-12232
7.557,15216,-12231
7.5564,15202,-12231
7.556,15201,-12230
7.5571,15185,-12232
7.5591,15163,-12231
7.56,15155,-12227
7.56,15168,-12223
7.56,15174,-12221
7.5606,15177,-12219
7.561,15171,-12224
7.561,15164,-12223
7.5616,15158,-12220
7.5626,15158,-12218
7.5636,15152,-12212
7.5646,15144,-12214
7.5644,15142,-12222
7.5646,15138,-12218
7.5656,15137,-12217
7.566,15129,-12226
7.5671,15136,-12220
7.5674,15140,-12217
7.5681,15124,-12221
7.569,15114,-12226
7.5684,15116,-12225
7.568,15125,-12230
7.5697,15121,-12234
7.571,15122,-12227
7.5716,15124,-12226
7.572,15131,-12228
7.572,15140,-12224
7.5731,15139,-12221
7.5734,15139,-12218
7.573,15140,-12224
7.5747,15142,-12226
7.5754,15136,-12226
7.5756,15144,-12235
7.5766,15146,-12232
7.577,15146,-12238
7.5776,15153,-12223
7.578,15156,-12210
7.5797,15154,-12216
7.5799,15147,-12222
7.5812,15152,-12217
7.5808,15161,-12224
7.5801,15153,-12223
7.5816,15149,-12210
7.5826,15152,-12218
7.5824,15148,-12227
7.5826,15152,-12219
7.5836,15160,-12213
7.5846,15163,-12217
7.5856,15161,-12217
7.586,15161,-12221
7.5866,15162,-12223
7.5876,15156,-12224
7.5869,15158,-12228
7.5877,15163,-12229
7.589,15163,-12229
7.5896,15164,-12226
7.5906,15170,-12220
7.591,15172,-12224
7.591,15171,-12227
7.5916,15174,-12222
7.592,15175,-12213
7.5926,15174,-12218
7.593,15169,-12230
7.5941,15175,-12225
7.595,15181,-12227
7.5944,15184,-12231
7.5963,15186,-12232
7.598,15191,-12226
7.5974,15193,-12224
7.5981,15189,-12221
7.5979,15191,-12223
7.5976,15191,-12232
7.5991,15190,-12230
7.6,15190,-12228
7.6,15194,-12227
7.6006,15202,-12226
7.6021,15206,-12225
7.6024,15214,-12220
7.602,15208,-12230
7.6031,15216,-12224
7.604,15225,-12214
7.604,15221,-12219
7.6057,15223,-12222
7.607,15221,-12236
7.6064,15225,-12239
7.6071,15233,-12235
7.6063,15238,-12235
7.6061,15245,-12229
7.6076,15249,-12224
7.6097,15251,-12228
7.6099,15253,-12232
7.6101,15256,-12221
7.6104,15261,-12232
7.6106,15263,-12241
7.611,15266,-12239
7.6116,15273,-12238
7.6126,15275,-12242
7.6136,15284,-12246
7.6146,15292,-12232
7.615,15289,-12233
7.6156,15293,-12225
7.6171,15299,-12226
7.6169,15300,-12240
7.6166,15300,-12242
7.617,15299,-12247
7.6181,15300,-12243
7.619,15306,-12237
7.6201,15312,-12238
7.6204,15319,-12231
7.62,15320,-12233
7.6206,15323,-12237
7.6216,15328,-12240
7.6209,15323,-12247
7.6217,15326,-12244
7.623,15331,-12249
7.6241,15338,-12249
7.6244,15348,-12247
7.6251,15346,-12245
7.626,15355,-12237
7.6271,15359,-12229
7.628,15360,-12230
7.6274,15362,-12232
7.627,15363,-12228
7.6281,15365,-12230
7.6296,15370,-12242
7.63,15376,-12253
7.6294,15373,-12235
7.6301,15371,-12238
7.631,15374,-12229
7.631,15370,-12219
7.6316,15371,-12226
7.6331,15376,-12226
7.6346,15373,-12225
7.635,15365,-12227
7.635,15358,-12226
7.6356,15359,-12224
7.6366,15354,-12226
7.6364,15348,-12216
7.6366,15353,-12219
7.6381,15351,-12214
7.6384,15344,-12215
7.6391,15334,-12219
7.6394,15330,-12215
7.639,15323,-12224
7.6401,15310,-12223
7.641,15307,-12223
7.6404,15304,-12214
7.6411,15301,-12204
7.6426,15305,-12202
7.6424,15300,-12206
7.6426,15290,-12212
7.6424,15292,-12195
7.6431,15289,-12204
7.6451,15283,-12214
7.646,15279,-12209
7.646,15271,-12210
7.6466,15266,-12210
7.6481,15272,-12218
7.649,15275,-12212
7.649,15268,-12204
7.649,15268,-12206
7.6501,15270,-12205
7.651,15269,-12217
7.6521,15274,-12216
7.6524,15268,-12210
7.6526,15256,-12217
7.6536,15261,-12203
7.6534,15259,-12211
7.6536,15267,-12212
7.6546,15264,-12205
7.6544,15260,-12212
7.6546,15263,-12215
7.6556,15263,-12215
7.656,15260,-12207
7.6571,15255,-12212
7.658,15256,-12215
7.6574,15260,-12216
7.6576,15260,-12221
7.6591,15259,-12217
7.66,15258,-12217
7.66,15259,-12207
7.66,15261,-12206
7.66,15258,-12200
7.6617,15258,-12205
7.6624,15256,-12215
7.662,15246,-12205
7.6626,15246,-12209
7.6636,15248,-12219
7.6646,15247,-12217
7.6644,15254,-12214
7.6651,15253,-12211
7.6654,15251,-12210
7.6644,15247,-12216
7.6651,15246,-12218
7.6666,15246,-12210
7.6664,15246,-12206
7.6671,15244,-12207
7.668,15245,-12213
7.668,15247,-12212
7.6691,15245,-12212
7.67,15249,-12212
7.67,15247,-12208
7.6694,15241,-12206
7.6696,15248,-12208
7.6711,15245,-12219
7.6714,15234,-12218
7.6721,15232,-12209
7.6736,15237,-12218
7.674,15242,-12227
7.6734,15245,-12221
7.6747,15248,-12216
7.676,15244,-12209
7.6754,15230,-12206
7.6756,15236,-12209
7.676,15236,-12209
7.6766,15230,-12213
7.677,15233,-12214
7.6776,15236,-12220
7.6786,15239,-12216
7.6779,15242,-12212
7.6776,15247,-12210
7.6791,15249,-12205
7.68,15242,-12201
7.6806,15236,-12208
7.6804,15231,-12205
7.68,15231,-12198
7.6806,15226,-12205
7.6822,15226,-12211
7.683,15233,-12214
7.6824,15234,-12218
7.682,15231,-12224
7.6826,15228,-12214
7.683,15229,-12218
7.6847,15231,-12207
7.686,15228,-12209
7.686,15223,-12215
7.686,15218,-12202
7.6866,15214,-12211
7.687,15217,-12231
7.6876,15220,-12227
7.6886,15219,-12215
7.6879,15220,-12213
7.6887,15219,-12220
7.69,15211,-12220
7.6894,15213,-12202
7.6907,15209,-12205
7.6903,15208,-12209
7.6896,15208,-12207
7.6912,15206,-12210
7.6926,15206,-12206
7.6936,15210,-12198
7.6917,15214,-12198
7.6912,15208,-12208
7.6926,15199,-12212
7.6936,15206,-12204
7.694,15202,-12206
7.694,15195,-12213
7.6946,15201,-12209
7.695,15202,-12210
7.6956,15203,-12224
7.696,15214,-12214
7.6966,15220,-12195
7.697,15220,-12196
7.6982,15218,-12202
7.6984,15222,-12203
7.6992,15228,-12190
7.7006,15239,-12196
7.6998,15250,-12203
7.6984,15263,-12200
7.6986,15273,-12202
7.7007,15293,-12209
7.7009,15311,-12198
7.7006,15314,-12192
7.701,15302,-12186
7.701,15299,-12197
7.7016,15301,-12198
7.7026,15297,-12189
7.703,15292,-12196
7.703,15284,-12208
7.7036,15283,-12210
7.7046,15299,-12202
7.7044,15312,-12204
7.7046,15317,-12203
7.705,15328,-12204
7.7056,15334,-12203
7.706,15343,-12197
7.7066,15347,-12201
7.707,15350,-12201
7.707,15359,-12199
7.7076,15372,-12200
7.708,15382,-12199
7.7074,15382,-12201
7.7087,15387,-12201
7.7089,15378,-12198
7.708,15363,-12193
7.7092,15359,-12202
7.7089,15349,-12206
7.7103,15347,-12208
7.712,15344,-12205
7.7108,15334,-12209
7.7106,15327,-12208
7.7116,15323,-12205
7.712,15322,-12211
7.7114,15309,-12201
7.7122,15293,-12191
7.713,15279,-12196
7.713,15266,-12202
7.7136,15256,-12202
7.7146,15248,-12202
7.7138,15242,-12202
7.7136,15228,-12207
7.7146,15222,-12206
7.7156,15220,-12196
7.7154,15225,-12203
7.7162,15217,-12206
7.717,15200,-12208
7.7176,15195,-12204
7.7186,15191,-12204
7.7178,15183,-12208
7.7164,15181,-12205
7.7177,15188,-12203
7.7184,15177,-12205
7.7186,15173,-12201
7.719,15185,-12197
7.719,15183,-12199
7.719,15190,-12207
7.719,15190,-12212
7.719,15179,-12207
7.7207,15181,-12201
7.7214,15188,-12213
7.7193,15195,-12220
7.7203,15194,-12215
7.7214,15200,-12217
7.7222,15208,-12200
7.7218,15209,-12201
7.7222,15199,-12209
7.7236,15196,-12199
7.7223,15196,-12197
7.7222,15194,-12198
7.7242,15197,-12199
7.7238,15195,-12199
7.7236,15193,-12207
7.724,15198,-12205
7.7246,15208,-12205
7.7244,15211,-12197
7.7246,15212,-12197
7.7244,15212,-12207
7.7257,15212,-12216
7.7264,15214,-12202
7.7266,15213,-12198
7.727,15210,-12206
7.727,15205,-12200
7.7264,15197,-12198
7.7266,15185,-12196
7.7282,15149,-12192
7.7284,15119,-12195
7.728,15114,-12199
7.7286,15116,-12202
7.729,15125,-12208
7.729,15138,-12216
7.7284,15190,-12220
7.7286,15259,-12214
7.7302,15350,-12210
7.7298,15494,-12200
7.7296,15670,-12190
7.73,15866,-12182
7.7306,16114,-12183
7.7304,16331,-12188
7.7312,16511,-12189
7.7314,16685,-12178
7.731,16830,-12179
7.7316,16969,-12180
7.7337,17077,-12188
7.7327,17108,-12202
7.731,17124,-12202
7.7316,17098,-12198
7.7332,16973,-12205
7.734,16857,-12221
7.734,16732,-12227
7.734,16558,-12236
7.734,16313,-12242
7.7346,16067,-12238
7.7338,15870,-12239
7.7336,15726,-12230
7.734,15630,-12226
7.7346,15548,-12231
7.735,15500,-12226
7.735,15488,-12218
7.7344,15483,-12220
7.7346,15472,-12217
7.7362,15436,-12215
7.737,15435,-12217
7.7364,15440,-12217
7.736,15439,-12212
7.7366,15445,-12204
7.7376,15433,-12197
7.7386,15422,-12200
7.7373,15419,-12200
7.7372,15413,-12197
7.738,15406,-12209
7.738,15399,-12211
7.7386,15395,-12214
7.739,15403,-12218
7.739,15405,-12211
7.739,15405,-12212
7.7396,15414,-12202
7.7394,15419,-12198
7.7396,15425,-12210
7.74,15428,-12204
7.74,15431,-12206
7.74,15428,-12212
7.7406,15431,-12201
7.7404,15432,-12204
7.7406,15443,-12194
7.7422,15446,-12201
7.7418,15444,-12198
7.7422,15452,-12200
7.7424,15464,-12199
7.7408,15464,-12193
7.7417,15467,-12200
7.743,15469,-12206
7.7418,15472,-12202
7.741,15487,-12198
7.741,15491,-12203
7.741,15496,-12208
7.7422,15503,-12212
7.743,15511,-12200
7.7424,15519,-12198
7.7438,15527,-12209
7.7432,15525,-12210
7.7432,15534,-12198
7.744,15549,-12194
7.744,15549,-12196
7.7434,15552,-12197
7.7424,15558,-12202
7.7426,15568,-12200
7.7436,15592,-12198
7.744,15591,-12201
7.744,15584,-12199
7.744,15598,-12198
7.744,15599,-12202
7.7452,15596,-12197
7.7454,15611,-12199
7.745,15622,-12204
7.745,15622,-12200
7.745,15631,-12203
7.745,15644,-12199
7.7456,15644,-12193
7.7466,15647,-12206
7.7464,15658,-12205
7.746,15659,-12192
7.7466,15664,-12196
7.7464,15668,-12202
7.7454,15674,-12211
7.7456,15681,-12200
7.7466,15700,-12198
7.747,15703,-12204
7.7476,15712,-12201
7.748,15727,-12197
7.7474,15727,-12193
7.747,15732,-12195
7.7482,15732,-12194
7.7484,15738,-12199
7.7474,15744,-12206
7.7476,15751,-12204
7.7474,15764,-12210
7.7476,15766,-12205
7.7486,15783,-12195
7.749,15787,-12201
7.7484,15786,-12214
7.7486,15794,-12206
7.749,15801,-12213
7.7496,15815,-12209
7.7494,15822,-12203
7.7496,15835,-12211
7.7494,15841,-12209
7.7502,15845,-12202
7.7486,15857,-12195
7.7493,15862,-12202
7.7504,15871,-12208
7.75,15875,-12201
7.7506,15881,-12203
7.7498,15890,-12209
7.749,15895,-12210
7.7484,15910,-12212
7.7486,15923,-12214
7.749,15931,-12215
7.7496,15950,-12205
7.7494,15954,-12204
7.7496,15953,-12206
7.7494,15957,-12207
7.7496,15962,-12210
7.7494,15968,-12217
7.7496,15969,-12224
7.75,15992,-12212
7.75,16002,-12226
7.75,16011,-12224
7.7512,16028,-12218
7.7514,16027,-12223
7.751,16030,-12217
7.751,16045,-12221
7.7516,16055,-12223
7.7514,16066,-12217
7.7504,16071,-12222
7.7512,16072,-12221
7.7508,16075,-12215
7.7506,16080,-12218
7.751,16094,-12216
7.7504,16106,-12219
7.75,16112,-12228
7.75,16121,-12219
7.7506,16128,-12220
7.7522,16138,-12230
7.7518,16146,-12225
7.751,16148,-12221
7.751,16152,-12228
7.7522,16158,-12222
7.7518,16157,-12208
7.7504,16160,-12213
7.75,16169,-12220
7.7506,16170,-12216
7.7516,16172,-12210
7.7508,16173,-12214
7.7506,16173,-12216
7.7516,16181,-12216
7.7508,16184,-12215
7.7506,16179,-12207
7.7516,16182,-12209
7.7508,16187,-12212
7.75,16184,-12213
7.7512,16180,-12212
7.7514,16180,-12205
7.7516,16178,-12205
7.7514,16182,-12208
7.7522,16177,-12210
7.7524,16175,-12205
7.7514,16176,-12201
7.751,16181,-12200
7.7504,16175,-12208
7.75,16174,-12202
7.7506,16183,-12203
7.7522,16177,-12204
7.7524,16179,-12207
7.7526,16180,-12214
7.7519,16181,-12212
7.7504,16187,-12206
7.7512,16186,-12207
7.7526,16195,-12207
7.7519,16196,-12209
7.751,16210,-12206
7.7504,16208,-12201
7.75,16200,-12210
7.7512,16203,-12214
7.7514,16208,-12210
7.7522,16208,-12216
7.7519,16207,-12212
7.7522,16215,-12203
7.7507,16217,-12212
7.7496,16225,-12213
7.7494,16220,-12211
7.7496,16222,-12214
7.75,16228,-12202
7.7494,16222,-12205
7.7513,16221,-12207
7.7519,16224,-12209
7.7521,16223,-12221
7.753,16228,-12212
7.7513,16221,-12213
7.7506,16218,-12210
7.751,16224,-12211
7.751,16222,-12214
7.7516,16222,-12207
7.7509,16226,-12201
7.7506,16224,-12210
7.751,16223,-12215
7.7516,16222,-12217
7.752,16218,-12211
7.7509,16218,-12216
7.75,16222,-12212
7.75,16222,-12215
7.7494,16231,-12208
7.7496,16224,-12202
7.75,16219,-12208
7.75,16219,-12205
7.7494,16218,-12208
7.749,16220,-12203
7.7496,16214,-12209
7.7494,16211,-12210
7.7496,16213,-12215
7.75,16212,-12219
7.75,16211,-12202
7.7494,16216,-12197
7.7484,16222,-12203
7.7491,16218,-12208
7.75,16217,-12209
7.7489,16208,-12213
7.7491,16208,-12212
7.7489,16210,-12218
7.7486,16212,-12211
7.749,16219,-12208
7.749,16220,-12214
7.7496,16219,-12199
7.7494,16216,-12201
7.749,16211,-12206
7.749,16211,-12206
7.7484,16219,-12214
7.7474,16223,-12208
7.7481,16222,-12203
7.749,16230,-12205
7.749,16236,-12195
7.7473,16225,-12201
7.746,16214,-12200
7.7466,16213,-12195
7.7464,16216,-12205
7.7466,16208,-12205
7.747,16202,-12205
7.7464,16200,-12215
7.7471,16200,-12214
7.7463,16200,-12209
7.745,16200,-12205
7.7456,16202,-12200
7.7466,16201,-12206
7.7459,16198,-12211
7.7467,16198,-12203
7.7474,16190,-12202
7.7459,16193,-12210
7.7456,16188,-12208
7.746,16177,-12205
7.7449,16174,-12206
7.744,16171,-12203
7.7446,16164,-12208
7.7456,16160,-12215
7.7449,16162,-12200
7.7434,16151,-12190
7.7447,16139,-12195
7.7449,16138,-12195
7.744,16133,-12202
7.7434,16140,-12219
7.7441,16147,-12213
7.7444,16136,-12208
7.7423,16133,-12206
7.7421,16123,-12190
7.7435,16105,-12190
7.7435,16107,-12208
7.743,16103,-12198
7.7424,16096,-12201
7.7425,16104,-12199
7.7441,16101,-12176
7.7439,16095,-12195
7.7424,16078,-12197
7.7415,16065,-12201
7.7427,16073,-12202
7.7429,16071,-12190
7.7415,16056,-12186
7.741,16047,-12193
7.7416,16050,-12205
7.7415,16038,-12201
7.741,16025,-12196
7.7405,16021,-12201
7.74,16017,-12201
7.74,16014,-12195
7.7405,16002,-12196
7.7394,16002,-12191
7.7397,15997,-12188
7.7405,15994,-12195
7.7405,15994,-12193
7.7405,15980,-12195
7.7411,15976,-12206
7.7409,15981,-12205
7.7405,15980,-12202
7.7416,15981,-12210
7.7415,15991,-12210
7.7399,16002,-12202
7.7396,16005,-12199
7.7389,16009,-12196
7.738,16023,-12193
7.7391,16024,-12199
7.7389,16017,-12206
7.738,16018,-12194
7.7386,16017,-12193
7.7379,16009,-12203
7.7375,16004,-12198
7.738,15991,-12194
7.738,15981,-12194
7.7375,15977,-12207
7.737,15966,-12207
7.7365,15961,-12202
7.736,15968,-12203
7.736,15972,-12203
7.736,15961,-12193
7.736,15982,-12203
7.736,15995,-12189
7.7355,15976,-12184
7.735,15970,-12193
7.735,15957,-12187
7.735,15957,-12193
7.7345,15965,-12197
7.734,15963,-12205
7.734,15955,-12193
7.7335,15949,-12194
7.7335,15941,-12189
7.734,15920,-12175
7.7335,15913,-12186
7.7335,15906,-12202
7.7329,15896,-12196
7.7325,15875,-12194
7.7335,15856,-12215
7.7335,15833,-12213
7.733,15819,-12205
7.7325,15813,-12207
7.7315,15804,-12203
7.731,15790,-12198
7.731,15765,-12194
7.731,15753,-12194
7.731,15744,-12201
7.731,15731,-12204
7.7305,15719,-12199
7.7305,15697,-12206
7.7294,15678,-12214
7.7296,15658,-12215
7.7305,15645,-12208
7.7284,15622,-12207
7.7281,15609,-12216
7.729,15597,-12214
7.7285,15584,-12185
7.7275,15580,-12187
7.7281,15560,-12200
7.7285,15562,-12192
7.728,15558,-12197
7.7285,15551,-12192
7.7279,15558,-12196
7.727,15554,-12211
7.727,15538,-12191
7.7275,15543,-12190
7.728,15508,-12212
7.7275,15490,-12199
7.7265,15494,-12171
7.7255,15474,-12211
7.7255,15476,-12214
7.7255,15472,-12182
7.7255,15462,-12210
7.726,15462,-12202
7.7249,15466,-12184
7.7235,15460,-12205
7.723,15439,-12205
7.723,15428,-12204
7.7219,15415,-12200
7.7215,15405,-12202
7.7231,15407,-12207
7.7235,15404,-12194
7.723,15406,-12202
7.7225,15402,-12204
7.7215,15388,-12201
7.7215,15381,-12205
7.722,15376,-12203
7.7225,15369,-12196
7.7225,15364,-12204
7.722,15345,-12212
7.7215,15331,-12199
7.721,15324,-12200
7.721,15315,-12201
7.721,15272,-12181
7.7199,15220,-12190
7.7195,15206,-12205
7.7205,15193,-12193
7.7199,15191,-12196
7.7185,15198,-12216
7.718,15235,-12209
7.718,15280,-12204
7.7185,15366,-12186
7.7185,15481,-12195
7.7175,15651,-12213
7.7165,15855,-12186
7.7165,16065,-12170
7.717,16262,-12189
7.7165,16429,-12199
7.7165,16595,-12178
7.717,16710,-12185
7.7165,16843,-12188
7.7155,16947,-12156
7.7161,16974,-12198
7.716,16994,-12232
7.715,16938,-12177
7.7145,16758,-12164
7.714,16593,-12190
7.7135,16496,-12227
7.7146,16347,-12231
7.7144,16141,-12222
7.7135,15907,-12230
7.713,15660,-12240
7.713,15498,-12247
7.7135,15401,-12232
7.713,15293,-12232
7.7114,15229,-12230
7.711,15200,-12215
7.711,15176,-12196
7.711,15164,-12195
7.711,15155,-12210
7.7105,15121,-12211
7.7105,15095,-12196
7.7105,15104,-12186
7.711,15111,-12198
7.7105,15127,-12201
7.7105,15112,-12209
7.71,15106,-12221
7.708,15100,-12206
7.708,15067,-12205
7.7085,15059,-12208
7.708,15048,-12217
7.707,15030,-12215
7.7065,15024,-12199
7.7065,15021,-12203
7.7065,15024,-12204
7.7065,15007,-12207
7.706,15002,-12205
7.705,14989,-12206
7.7055,14959,-12203
7.707,14956,-12205
7.7055,14948,-12208
7.704,14938,-12213
7.7045,14932,-12220
7.705,14909,-12210
7.704,14883,-12190
7.7035,14892,-12208
7.703,14907,-12216
7.7025,14891,-12209
7.702,14866,-12193
7.7015,14871,-12206
7.702,14879,-12199
7.7015,14868,-12174
7.701,14873,-12202
7.7015,14871,-12210
7.701,14842,-12221
7.7,14834,-12213
7.7,14852,-12205
7.7,14851,-12208
7.7,14837,-12207
7.6995,14828,-12212
7.699,14825,-12205
7.699,14818,-12204
7.699,14802,-12214
7.6985,14783,-12213
7.698,14767,-12201
7.698,14765,-12218
7.6975,14757,-12223
7.6975,14756,-12199
7.697,14746,-12187
7.6955,14727,-12213
7.6955,14730,-12221
7.6955,14720,-12200
7.695,14705,-12203
7.695,14699,-12212
7.696,14698,-12220
7.696,14683,-12216
7.695,14670,-12204
7.6945,14657,-12203
7.6935,14630,-12179
7.6935,14646,-12184
7.6935,14657,-12196
7.6935,14628,-12202
7.694,14617,-12221
7.6935,14651,-12221
7.6925,14650,-12217
7.6925,14628,-12207
7.6915,14638,-12197
7.6915,14637,-12215
7.693,14636,-12218
7.691,14621,-12197
7.6885,14607,-12226
7.6885,14596,-12197
7.6895,14575,-12187
7.691,14580,-12211
7.69,14566,-12186
7.6885,14574,-12190
7.6885,14589,-12212
7.6885,14573,-12188
7.689,14566,-12186
7.689,14558,-12210
7.688,14566,-12202
7.687,14560,-12205
7.6865,14539,-12222
7.686,14516,-12235
7.6855,14544,-12215
7.685,14542,-12208
7.685,14517,-12209
7.6845,14545,-12207
7.6845,14543,-12217
7.685,14503,-12218
7.6845,14502,-12185
7.684,14493,-12190
7.684,14486,-12209
7.684,14507,-12208
7.6835,14503,-12219
7.683,14515,-12211
7.6825,14494,-12195
7.6825,14486,-12222
7.683,14499,-12225
7.6825,14519,-12192
7.6815,14524,-12192
7.6815,14532,-12210
7.682,14504,-12222
7.681,14510,-12232
7.68,14501,-12241
7.6795,14446,-12220
7.6805,14463,-12235
7.681,14471,-12250
7.6795,14462,-12213
7.679,14417,-12213
7.6785,14439,-12219
7.6785,14480,-12206
7.679,14481,-12205
7.678,14473,-12213
7.677,14474,-12215
7.6765,14485,-12231
7.6765,14444,-12234
7.676,14446,-12227
7.675,14443,-12224
7.6755,14432,-12229
7.6765,14450,-12239
7.6755,14433,-12211
7.675,14427,-12197
7.676,14437,-12232
7.675,14395,-12226
7.6745,14396,-12226
7.675,14397,-12228
7.675,14346,-12222
7.674,14318,-12198
7.6725,14344,-12180
7.672,14370,-12236
7.672,14320,-12214
7.6725,14346,-12206
7.6735,14323,-12203
7.674,14282,-12199
7.6725,14331,-12215
7.671,14318,-12200
7.6715,14251,-12210
7.672,14278,-12212
7.672,14291,-12204
7.67,14252,-12205
7.6695,14289,-12229
7.67,14267,-12219
7.6685,14246,-12189
7.6675,14236,-12201
7.6685,14222,-12190
7.6695,14208,-12210
7.6685,14172,-12207
7.6675,14163,-12210
7.6675,14153,-12194
7.667,14164,-12185
7.6665,14158,-12221
7.6665,14151,-12208
7.6665,14137,-12216
7.6665,14131,-12225
7.6665,14130,-12211
7.666,14125,-12218
7.665,14109,-12226
7.6655,14106,-12238
7.665,14096,-12215
7.6645,14093,-12188
7.665,14104,-12233
7.6645,14135,-12229
7.6635,14144,-12198
7.664,14103,-12229
7.664,14119,-12234
7.6625,14101,-12209
7.6625,14047,-12210
7.663,14044,-12206
7.6611,14024,-12215
7.6604,14039,-12197
7.662,14043,-12189
7.6615,14052,-12208
7.6596,14073,-12207
7.6585,14010,-12224
7.659,14025,-12214
7.66,14022,-12201
7.6596,14009,-12236
7.6585,13996,-12215
7.6585,14024,-12207
7.658,14056,-12206
7.6585,14011,-12187
7.658,14035,-12204
7.6575,14041,-12207
7.658,13998,-12201
7.6575,13987,-12207
7.657,13970,-12217
7.6565,13963,-12212
7.6555,13955,-12238
7.655,13958,-12200
7.6545,13942,-12225
7.6545,13939,-12253
7.655,13938,-12215
7.655,13964,-12221
7.655,13973,-12215
7.654,13941,-12222
7.6535,13979,-12221
7.654,13983,-12221
7.6531,13964,-12222
7.6525,13960,-12220
7.6525,13974,-12217
7.6529,13947,-12219
7.6531,13924,-12199
7.652,13926,-12181
7.651,13916,-12189
7.6509,13925,-12204
7.652,13893,-12172
7.6515,13928,-12204
7.6501,13916,-12207
7.649,13874,-12179
7.6495,13874,-12195
7.6495,13867,-12166
7.6485,13864,-12194
7.6489,13840,-12230
7.65,13868,-12226
7.6486,13871,-12227
7.6475,13890,-12246
7.648,13913,-12197
7.648,13869,-12199
7.6471,13865,-12239
7.6465,13873,-12211
7.6461,13893,-12206
7.645,13910,-12215
7.6455,13878,-12231
7.6455,13876,-12219
7.6445,13818,-12220
7.6435,13781,-12231
7.6439,13766,-12212
7.6445,13759,-12181
7.644,13813,-12199
7.6431,13792,-12252
7.6415,13761,-12212
7.641,13805,-12196
7.6415,13827,-12215
7.6415,13846,-12170
7.6415,13834,-12203
7.642,13730,-12225
7.6415,13754,-12220
7.6405,13747,-12234
7.6395,13758,-12207
7.639,13821,-12206
7.6376,13776,-12250
7.6374,13756,-12231
7.6395,13764,-12174
7.6386,13700,-12186
7.637,13753,-12212
7.6379,13762,-12187
7.6385,13688,-12232
7.6371,13720,-12223
7.6365,13750,-12242
7.6375,13746,-12225
7.6371,13727,-12212
7.6355,13742,-12242
7.635,13693,-12212
7.6355,13684,-12218
7.636,13719,-12248
7.636,13679,-12227
7.636,13638,-12221
7.6355,13685,-12241
7.6355,13737,-12208
7.6351,13687,-12253
7.6335,13644,-12210
7.633,13720,-12193
7.633,13684,-12216
7.6325,13642,-12199
7.6325,13728,-12210
7.633,13720,-12210
7.6321,13698,-12220
7.6315,13709,-12231
7.6311,13767,-12221
7.6304,13765,-12209
7.6315,13735,-12208
7.6311,13717,-12236
7.6296,13744,-12233
7.629,13704,-12232
7.6295,13675,-12215
7.6296,13718,-12239
7.6281,13636,-12234
7.627,13725,-12172
7.6274,13742,-12202
7.628,13655,-12214
7.6276,13666,-12218
7.627,13702,-12253
7.6274,13720,-12241
7.6276,13731,-12244
7.6265,13757,-12226
7.626,13726,-12207
7.6255,13722,-12246
7.6254,13714,-12271
7.6255,13689,-12215
7.625,13711,-12242
7.625,13660,-12203
7.6241,13666,-12207
7.6235,13708,-12238
7.624,13671,-12227
7.6235,13624,-12231
7.6221,13640,-12223
7.6223,13677,-12241
7.6231,13638,-12195
7.622,13588,-12198
7.6211,13603,-12253
7.62,13631,-12262
7.62,13577,-12270
7.6196,13571,-12257
7.6199,13583,-12271
7.6201,13509,-12240
7.6186,13481,-12246
7.618,13548,-12249
7.6184,13470,-12239
7.619,13488,-12251
7.619,13531,-12244
7.6194,13483,-12227
7.6196,13497,-12217
7.6186,13469,-12221
7.6176,13423,-12228
7.6166,13409,-12218
7.6164,13396,-12252
7.617,13379,-12240
7.6166,13378,-12231
7.6164,13458,-12282
7.6166,13456,-12263
7.6156,13424,-12244
7.6141,13389,-12263
7.6134,13411,-12254
7.6136,13431,-12260
7.6134,13429,-12276
7.614,13427,-12245
7.614,13418,-12247
7.6136,13389,-12243
7.613,13382,-12223
7.6126,13385,-12249
7.6116,13359,-12235
7.611,13366,-12228
7.6114,13404,-12264
7.6116,13352,-12248
7.611,13325,-12244
7.6101,13378,-12256
7.6099,13387,-12252
7.6106,13318,-12246
7.6104,13372,-12277
7.6101,13411,-12257
7.6081,13352,-12215
7.6079,13311,-12209
7.6086,13331,-12207
7.6076,13321,-12256
7.6083,13334,-12268
7.6087,13326,-12238
7.6074,13329,-12255
7.608,13307,-12268
7.6071,13263,-12268
7.6064,13163,-12258
7.607,13145,-12235
7.607,13231,-12236
7.6061,13245,-12212
7.6041,13259,-12227
7.6039,13281,-12213
7.605,13324,-12217
7.6046,13346,-12264
7.6036,13367,-12224
7.6026,13554,-12217
7.6024,13758,-12208
7.603,13913,-12215
7.6026,14061,-12188
7.602,14289,-12194
7.602,14342,-12222
7.6016,14388,-12214
7.6006,14478,-12211
7.5996,14664,-12234
7.5994,14739,-12234
7.6,14745,-12259
7.5996,14725,-12282
7.5994,14629,-12290
7.5996,14504,-12290
7.599,14351,-12281
7.5994,14278,-12250
7.5991,14149,-12211
7.598,13899,-12237
7.5984,13729,-12292
7.5986,13615,-12269
7.598,13494,-12210
7.5976,13407,-12234
7.5978,13312,-12238
7.5982,13302,-12227
7.5962,13301,-12255
7.595,13286,-12245
7.595,13292,-12231
7.5942,13293,-12213
7.5943,13370,-12211
7.5964,13340,-12254
7.5962,13321,-12254
7.5946,13303,-12265
7.594,13346,-12256
7.5944,13371,-12244
7.5946,13428,-12255
7.5936,13416,-12221
7.593,13374,-12218
7.5934,13409,-12266
7.5927,13425,-12239
7.5922,13423,-12228
7.594,13406,-12241
7.5936,13399,-12234
7.5926,13403,-12243
7.5912,13428,-12246
7.5904,13426,-12217
7.591,13365,-12207
7.5906,13451,-12206
7.5892,13468,-12201
7.5884,13486,-12202
7.589,13489,-12201
7.589,13525,-12243
7.5886,13497,-12239
7.5888,13508,-12240
7.5896,13579,-12254
7.589,13560,-12226
7.5886,13588,-12211
7.588,13559,-12241
7.5884,13510,-12246
7.5882,13520,-12191
7.587,13483,-12201
7.5874,13461,-12184
7.5872,13470,-12150
7.586,13514,-12140
7.5864,13450,-12170
7.5866,13475,-12198
7.5856,13703,-12233
7.5846,13834,-12253
7.584,13880,-12230
7.5848,13684,-12218
7.5848,13702,-12192
7.5834,13909,-12216
7.5836,13908,-12215
7.5826,13832,-12242
7.5824,13923,-12218
7.5826,13958,-12135
7.5824,14074,-12126
7.5822,13980,-12168
7.581,13802,-12190
7.581,13948,-12174
7.5814,14001,-12099
7.5816,13970,-12190
7.581,14082,-12252
7.581,14059,-12242
7.5806,13988,-12225
7.5804,13921,-12205
7.5806,13868,-12281
7.5792,13965,-12288
7.5788,14063,-12218
7.5804,14047,-12171
7.581,14071,-12189
7.5802,13910,-12195
7.5794,13826,-12165
7.5796,13765,-12118
7.5782,13590,-12138
7.577,13790,-12156
7.5774,13892,-12209
7.5772,13875,-12254
7.5768,13860,-12209
7.5776,13881,-12272
7.577,13767,-12270
7.577,13856,-12216
7.5766,14020,-12182
7.576,13885,-12289
7.5756,13645,-12206
7.5754,13701,-12189
7.5752,13949,-12265
7.5744,14022,-12211
7.575,14010,-12260
7.5742,14052,-12245
7.5738,14057,-12221
7.575,14112,-12314
7.5746,14075,-12309
7.5748,13863,-12220
7.5748,13431,-12151
7.5726,13733,-12205
7.572,14225,-12210
7.5728,14099,-12232
7.574,13970,-12313
7.5736,13957,-12338
7.573,13981,-12391
7.573,14166,-12445
7.5726,14186,-12601
7.572,14119,-12749
7.5716,14146,-12844
7.5706,14233,-12902
7.5708,14308,-12794
7.5712,14421,-12656
7.57,14055,-12532
7.5696,14045,-12273
7.5686,13988,-12057
7.5688,14205,-12211
7.57,14273,-12428
7.5704,14173,-12647
7.5706,14261,-12771
7.5696,14136,-12981
7.569,14127,-12948
7.569,14107,-12815
7.5682,14165,-12626
7.5678,14203,-12390
7.5686,14157,-12266
7.5676,13979,-12123
7.567,13954,-12024
7.5678,13952,-12060
7.5682,13992,-12218
7.5666,14124,-12213
7.5664,14313,-11978
7.567,14572,-11816
7.5674,14462,-11735
7.5676,14466,-11779
7.5666,14228,-11921
7.566,14052,-12175
7.5656,14095,-12223
7.565,14133,-12179
7.5654,14192,-12068
7.5656,14280,-11931
7.565,14503,-11874
7.565,14836,-11880
7.5654,14889,-11928
7.566,14453,-11942
7.5656,14307,-11960
7.5646,14669,-12003
7.5644,14791,-12128
7.565,14519,-12234
7.5654,14316,-12229
7.5652,14074,-12269
7.5644,14055,-12335
7.5646,14384,-12336
7.564,14541,-12356
7.5648,14612,-12435
7.5649,14235,-12524
7.5634,14104,-12614
7.5648,14232,-12702
7.566,14323,-12750
7.5656,14190,-12721
7.5654,14037,-12608
7.566,14144,-12531
7.5656,14331,-12381
7.5646,14349,-12270
7.5648,13919,-12240
7.5656,13549,-12287
7.5654,13426,-12375
7.5652,13614,-12338
7.5636,13719,-12187
7.5634,13791,-12042
7.5636,13901,-11903
7.5637,14626,-11794
7.5654,15146,-11650
7.5656,15381,-11608
7.565,15223,-11847
7.5646,15480,-12099
7.564,15160,-12151
7.564,14904,-12219
7.5644,14859,-12184
7.5646,14923,-12184
7.5644,14760,-12179
7.5646,14491,-12259
7.5644,14641,-12299
7.565,14915,-12401
7.5654,14958,-12344
7.5656,15003,-12207
7.5654,14966,-12194
7.5653,14943,-12246
7.5651,15147,-12260
7.567,15171,-12226
7.5666,15090,-12238
7.5656,15010,-12233
7.565,15044,-12194
7.5657,15066,-12151
7.567,15119,-12191
7.567,15274,-12177
7.567,15328,-12063
7.567,15126,-12075
7.5681,15095,-12115
7.5689,15017,-12057
7.5677,15009,-12092
7.5686,15076,-12115
7.5684,15241,-12161
7.5697,15423,-12216
7.5706,15274,-12181
7.57,15042,-12119
7.57,14704,-12068
7.5704,14678,-12108
7.571,14878,-12112
7.571,15092,-12238
7.5717,15333,-12289
7.5726,15484,-12287
7.572,15409,-12259
7.5724,15176,-12212
7.573,15213,-12161
7.573,15116,-12164
7.5737,15024,-12169
7.5746,15094,-12239
7.5747,15353,-12207
7.5764,15617,-12125
7.5766,15683,-12166
7.5767,15615,-12138
7.5776,15403,-12265
7.5766,15278,-12309
7.5767,15359,-12326
7.578,15492,-12363
7.5784,15464,-12350
7.5786,15361,-12259
7.578,15352,-12294
7.5784,15353,-12274
7.579,15349,-12262
7.5794,15367,-12228
7.5797,15407,-12240
7.5797,15454,-12256
7.5807,15508,-12238
7.5807,15456,-12244
7.5813,15442,-12240
7.5804,15368,-12194
7.581,15061,-12163
7.5807,15072,-12194
7.5807,15173,-12196
7.5823,15524,-12187
7.583,15781,-12210
7.5834,15574,-12243
7.5836,15394,-12169
7.5834,15344,-12123
7.5833,15393,-12135
7.5827,15586,-12068
7.5836,15693,-12108
7.5837,15618,-12196
7.5846,15627,-12207
7.5843,15564,-12218
7.5846,15620,-12247
7.5847,15754,-12248
7.586,15763,-12212
7.5864,15543,-12175
7.5866,15360,-12187
7.5867,15287,-12256
7.5877,15229,-12255
7.587,15274,-12250
7.587,15262,-12277
7.587,15326,-12284
7.587,15410,-12308
7.5873,15393,-12373
7.588,15320,-12438
7.5877,15327,-12472
7.588,15344,-12477
7.5893,15367,-12365
7.588,15380,-12264
7.5884,15229,-12249
7.589,15121,-12164
7.5897,15054,-12088
7.5903,14984,-12182
7.589,15062,-12263
7.5887,15314,-12308
7.5883,15366,-12261
7.5893,15610,-12158
7.59,15753,-12119
7.5907,15461,-12054
7.5917,15214,-12011
7.5913,15252,-11967
7.5917,15360,-11957
7.5913,15414,-12051
7.5923,15437,-12094
7.593,15397,-12113
7.5927,15286,-12126
7.592,15244,-12124
7.5927,15233,-12100
7.5937,15343,-12149
7.593,15391,-12205
7.5937,15400,-12225
7.5947,15476,-12191
7.594,15508,-12163
7.594,15443,-12249
7.5943,15470,-12263
7.5953,15486,-12218
7.596,15515,-12221
7.596,15498,-12230
7.5963,15416,-12189
7.5967,15342,-12197
7.5963,15354,-12235
7.597,15257,-12248
7.597,15195,-12201
7.598,15277,-12230
7.5997,15333,-12235
7.599,15395,-12240
7.5993,15429,-12437
7.5997,15556,-12732
7.599,15387,-12848
7.599,15233,-12801
7.5997,15228,-12537
7.6007,15208,-12120
7.6,15218,-11690
7.6007,15357,-11680
7.6017,15471,-11802
7.6017,15474,-11911
7.6023,15608,-11885
7.6013,15684,-11911
7.6017,15394,-11961
7.6013,15181,-12038
7.6023,15108,-12120
7.6033,15168,-12128
7.604,15274,-12170
7.604,15277,-12162
7.6043,15213,-12130
7.6043,15174,-12162
7.6037,15152,-12164
7.605,15061,-12127
7.605,15021,-12154
7.6053,15090,-12187
7.6057,15123,-12150
7.6053,15188,-12158
7.606,15138,-12210
7.6063,15193,-12266
7.6073,15261,-12241
7.6077,15246,-12220
7.607,15317,-12233
7.6073,15400,-12222
7.6077,15405,-12210
7.6073,15359,-12203
7.608,15327,-12177
7.6086,15251,-12198
7.6097,15208,-12193
7.609,15228,-12183
7.609,15238,-12208
7.6093,15207,-12243
7.6097,15243,-12216
7.6096,15283,-12239
7.6104,15191,-12257
7.6093,15216,-12310
7.61,15246,-12331
7.61,15232,-12298
7.6103,15246,-12228
7.6116,15250,-12216
7.613,15266,-12214
7.6124,15256,-12189
7.6113,15226,-12164
7.612,15181,-12137
7.6123,15148,-12097
7.613,15132,-12048
7.6133,15139,-12075
7.614,15134,-12142
7.6137,15151,-12187
7.6139,15211,-12203
7.6154,15245,-12193
7.6137,15323,-12232
7.6139,15463,-12279
7.6163,15663,-12255
7.617,15898,-12273
7.6173,16105,-12299
7.6177,16279,-12288
7.617,16470,-12323
7.6179,16619,-12293
7.6194,16699,-12289
7.6183,16811,-12203
7.619,16854,-12071
7.6193,16913,-12091
7.62,16939,-12151
7.62,16855,-12160
7.62,16786,-12166
7.62,16661,-12180
7.62,16585,-12156
7.6203,16402,-12143
7.6213,16177,-12149
7.622,16007,-12172
7.6223,15822,-12163
7.6233,15691,-12184
7.6237,15585,-12199
7.6233,15480,-12220
7.624,15429,-12246
7.6243,15455,-12251
7.625,15423,-12250
7.625,15404,-12226
7.6247,15439,-12215
7.6246,15436,-12255
7.6263,15452,-12205
7.627,15458,-12176
7.627,15445,-12210
7.6276,15443,-12184
7.629,15389,-12087
7.6287,15344,-12120
7.6283,15393,-12183
7.629,15429,-12254
7.629,15399,-12205
7.6302,15353,-12156
7.6324,15382,-12114
7.6313,15419,-12098
7.632,15467,-12143
7.6329,15503,-12139
7.6347,15476,-12180
7.6337,15408,-12163
7.6333,15322,-12186
7.6343,15310,-12221
7.635,15378,-12235
7.6356,15384,-12233
7.6364,15417,-12234
7.6353,15399,-12246
7.636,15359,-12256
7.6368,15376,-12282
7.6382,15355,-12239
7.6366,15353,-12192
7.6383,15374,-12176
7.639,15380,-12127
7.6393,15399,-12135
7.6394,15379,-12147
7.6388,15364,-12197
7.6407,15403,-12184
7.6406,15383,-12211
7.642,15394,-12183
7.6423,15435,-12136
7.6427,15447,-12127
7.6428,15440,-12158
7.645,15458,-12177
7.645,15483,-12175
7.6453,15461,-12141
7.6457,15470,-12169
7.645,15458,-12199
7.645,15437,-12216
7.6458,15400,-12231
7.6477,15377,-12223
7.647,15358,-12224
7.6473,15371,-12199
7.648,15428,-12224
7.6483,15440,-12229
7.6498,15424,-12267
7.6515,15438,-12259
7.6503,15439,-12246
7.6513,15427,-12213
7.652,15461,-12173
7.652,15423,-12180
7.6523,15410,-12185
7.6535,15449,-12211
7.655,15461,-12175
7.655,15441,-12152
7.655,15434,-12160
7.6553,15406,-12222
7.6563,15428,-12232
7.6575,15452,-12237
7.6585,15417,-12225
7.6575,15391,-12195
7.6587,15381,-12164
7.659,15407,-12187
7.6612,15451,-12160
7.6595,15444,-12154
7.6615,15509,-12207
7.6625,15497,-12224
7.6613,15460,-12221
7.6625,15461,-12220
7.664,15434,-12203
7.6643,15459,-12218
7.6653,15474,-12223
7.666,15469,-12223
7.666,15480,-12253
7.6665,15477,-12226
7.6677,15519,-12226
7.667,15471,-12245
7.6673,15467,-12241
7.6682,15491,-12244
7.6692,15469,-12202
7.6703,15510,-12212
7.6708,15515,-12280
7.6705,15526,-12356
7.6725,15537,-12318
7.6738,15513,-12307
7.6727,15518,-12255
7.6727,15517,-12150
7.6753,15484,-12095
7.6762,15446,-12136
7.6765,15450,-12160
7.6755,15466,-12151
7.6772,15441,-12133
7.6785,15531,-12186
7.6793,15550,-12178
7.6777,15589,-12211
7.68,15511,-12220
7.6802,15468,-12229
7.6812,15459,-12214
7.682,15434,-12188
7.6825,15417,-12227
7.684,15434,-12234
7.6842,15455,-12217
7.6848,15434,-12222
7.6845,15452,-12248
7.6862,15472,-12283
7.6872,15485,-12290
7.688,15522,-12233
7.6882,15496,-12219
7.689,15522,-12169
7.689,15480,-12183
7.6897,15460,-12222
7.692,15468,-12280
7.6918,15471,-12282
7.6915,15492,-12234
7.693,15508,-12238
7.6932,15526,-12163
7.694,15531,-12131
7.6945,15528,-12171
7.6955,15519,-12164
7.6945,15505,-12164
7.6965,15540,-12210
7.698,15525,-12210
7.6985,15526,-12225
7.6998,15549,-12244
7.6992,15542,-12210
7.6998,15512,-12186
7.6997,15519,-12198
7.702,15512,-12233
7.7022,15542,-12216
7.7035,15562,-12210
7.705,15536,-12240
7.705,15505,-12234
7.7052,15465,-12226
7.7062,15402,-12217
7.707,15465,-12228
7.7072,15535,-12224
7.7084,15523,-12187
7.7102,15481,-12203
7.7108,15460,-12203
7.7104,15461,-12202
7.7124,15456,-12251
7.7136,15447,-12255
7.7122,15455,-12260
7.7132,15478,-12244
7.7138,15438,-12272
7.7137,15463,-12243
7.7164,15459,-12224
7.7178,15453,-12227
7.7176,15490,-12269
7.72,15490,-12261
7.7198,15499,-12263
7.7196,15490,-12245
7.7218,15462,-12224
7.7208,15449,-12265
7.72,15424,-12274
7.7206,15418,-12254
7.7236,15395,-12178
7.7256,15406,-12158
7.7244,15387,-12171
7.726,15412,-12165
7.7264,15460,-12207
7.7282,15435,-12198
7.7284,15447,-12235
7.7262,15438,-12265
7.7274,15471,-12245
7.729,15481,-12230
7.7292,15471,-12208
7.7302,15489,-12227
7.7312,15485,-12228
7.7322,15501,-12231
7.7332,15469,-12186
7.7342,15446,-12212
7.735,15400,-12241
7.735,15370,-12218
7.7354,15417,-12232
7.737,15386,-12172
7.7374,15443,-12236
7.739,15444,-12215
7.7388,15419,-12217
7.7384,15419,-12226
7.7404,15420,-12236
7.7418,15441,-12241
7.7412,15473,-12248
7.7418,15471,-12267
7.7412,15474,-12267
7.7424,15464,-12266
7.7444,15440,-12236
7.746,15437,-12199
7.7462,15399,-12189
7.747,15412,-12212
7.7474,15392,-12250
7.7488,15411,-12249
7.748,15395,-12252
7.7482,15422,-12263
7.7494,15447,-12282
7.751,15430,-12264
7.7514,15427,-12252
7.7536,15415,-12262
7.7556,15435,-12212
7.754,15405,-12262
7.7544,15436,-12261
7.7558,15423,-12262
7.7552,15427,-12246
7.7564,15443,-12254
7.758,15439,-12259
7.7584,15458,-12296
7.7596,15430,-12273
7.7584,15434,-12265
7.7602,15467,-12257
7.7612,15444,-12277
7.7622,15423,-12287
7.7632,15435,-12278
7.764,15452,-12279
7.764,15456,-12269
7.7644,15452,-12293
7.7662,15470,-12332
7.7668,15465,-12277
7.7662,15473,-12256
7.767,15454,-12243
7.7674,15487,-12268
7.7692,15456,-12278
7.7703,15445,-12278
7.7717,15453,-12226
7.7703,15444,-12244
7.772,15449,-12222
7.7722,15481,-12245
7.773,15451,-12277
7.773,15495,-12304
7.7735,15520,-12287
7.7758,15521,-12215
7.7752,15482,-12190
7.7763,15441,-12212
7.7782,15426,-12251
7.7792,15471,-12273
7.78,15487,-12241
7.78,15507,-12282
7.7798,15504,-12282
7.7793,15527,-12282
7.781,15506,-12299
7.781,15484,-12311
7.7813,15461,-12317
7.783,15452,-12305
7.7833,15463,-12265
7.785,15472,-12242
7.7852,15508,-12272
7.7862,15518,-12270
7.7868,15482,-12262
7.7865,15481,-12247
7.7887,15499,-12266
7.7875,15512,-12238
7.7898,15483,-12281
7.7893,15480,-12313
7.7913,15481,-12316
7.793,15443,-12263
7.7928,15426,-12320
7.7922,15445,-12323
7.7935,15396,-12308
7.796,15434,-12307
7.7958,15401,-12295
7.7953,15391,-12312
7.797,15370,-12315
7.7972,15375,-12301
7.798,15355,-12295
7.798,15329,-12299
7.7983,15326,-12294
7.8002,15325,-12310
7.801,15314,-12299
7.801,15337,-12308
7.8013,15317,-12301
7.8029,15310,-12312
7.8022,15322,-12289
7.8033,15314,-12315
7.805,15277,-12334
7.805,15243,-12322
7.8053,15260,-12321
7.8068,15280,-12332
7.8063,15240,-12279
7.808,15270,-12288
7.8083,15288,-12277
7.8099,15262,-12293
7.8093,15244,-12298
7.811,15256,-12371
7.8113,15246,-12349
7.8131,15248,-12322
7.8139,15229,-12327
7.813,15224,-12296
7.813,15220,-12282
7.813,15207,-12279
7.813,15228,-12279
7.8134,15217,-12304
7.8161,15213,-12321
7.817,15241,-12324
7.817,15247,-12329
7.8171,15247,-12331
7.818,15270,-12342
7.818,15286,-12304
7.8183,15276,-12342
7.82,15254,-12418
7.8201,15248,-12392
7.8207,15240,-12315
7.8195,15233,-12276
7.8227,15259,-12286
7.8213,15273,-12231
7.8233,15227,-12276
7.8249,15220,-12300
7.8244,15165,-12311
7.8267,15096,-12313
7.8251,15053,-12320
7.8263,15038,-12330
7.8279,15082,-12342
7.8273,15085,-12348
7.8287,15065,-12346
7.8275,15148,-12355
7.8308,15175,-12322
7.8293,15329,-12327
7.8309,15443,-12310
7.8303,15635,-12311
7.8321,15808,-12273
7.833,16003,-12270
7.8331,16140,-12264
7.834,16332,-12320
7.834,16478,-12347
7.8342,16555,-12348
7.836,16644,-12335
7.8359,16752,-12336
7.8355,16785,-12338
7.8389,16800,-12359
7.8378,16746,-12343
7.8364,16571,-12360
7.839,16392,-12369
7.8392,16277,-12370
7.8411,16137,-12390
7.8418,15967,-12372
7.84,15804,-12395
7.8402,15659,-12367
7.8422,15510,-12375
7.8439,15357,-12381
7.843,15300,-12414
7.8432,15209,-12411
7.845,15185,-12384
7.8451,15152,-12388
7.8459,15135,-12383
7.845,15100,-12369
7.8454,15100,-12366
7.8489,15149,-12360
7.848,15152,-12392
7.8482,15166,-12366
7.85,15145,-12335
7.85,15170,-12371
7.8499,15155,-12392
7.8492,15122,-12387
7.851,15159,-12368
7.8512,15166,-12409
7.8532,15153,-12402
7.8548,15157,-12413
7.8532,15141,-12438
7.8551,15151,-12469
7.856,15173,-12438
7.8559,15169,-12414
7.8551,15154,-12345
7.8559,15153,-12284
7.8553,15182,-12327
7.8581,15145,-12351
7.8589,15134,-12346
7.8582,15102,-12386
7.8598,15107,-12401
7.8582,15075,-12418
7.86,15080,-12421
7.8601,15061,-12398
7.8609,15059,-12351
7.8602,15040,-12398
7.8621,15057,-12421
7.863,15077,-12410
7.8632,15039,-12402
7.865,15085,-12417
7.865,15081,-12416
7.8651,15081,-12413
7.8661,15088,-12390
7.867,15103,-12423
7.8671,15087,-12429
7.8678,15110,-12419
7.8661,15074,-12426
7.8672,15090,-12430
7.8692,15068,-12403
7.8711,15059,-12394
7.8721,15067,-12425
7.873,15080,-12427
7.8729,15082,-12420
7.8718,15039,-12395
7.8703,15075,-12411
7.873,15068,-12431
7.8731,15077,-12433
7.874,15082,-12432
7.8742,15044,-12435
7.8759,15072,-12450
7.875,15066,-12443
7.8752,15051,-12434
7.8769,15049,-12396
7.8762,15070,-12402
7.8789,15057,-12391
7.8779,15057,-12421
7.8772,15065,-12421
7.8799,15069,-12423
7.8791,15048,-12461
7.8799,15054,-12487
7.8793,15060,-12476
7.883,15045,-12451
7.883,15058,-12446
7.883,15065,-12429
7.883,15044,-12390
7.8831,15090,-12406
7.8849,15054,-12435
7.884,15054,-12433
7.884,15063,-12474
7.8842,15054,-12461
7.887,15035,-12446
7.8872,15052,-12444
7.8889,15020,-12441
7.887,15052,-12448
7.8871,15067,-12424
7.8881,15063,-12448
7.8891,15041,-12448
7.8901,15036,-12463
7.891,15048,-12472
7.8909,15074,-12482
7.8903,15075,-12483
7.894,15075,-12500
7.8939,15065,-12454
7.892,15082,-12462
7.8921,15063,-12476
7.8931,15072,-12469
7.895,15096,-12497
7.8949,15050,-12490
7.8942,15084,-12494
7.8969,15062,-12474
7.8961,15090,-12460
7.8971,15075,-12439
7.898,15074,-12442
7.8981,15088,-12438
7.8989,15071,-12471
7.8981,15083,-12473
7.899,15074,-12476
7.8991,15078,-12475
7.9,15077,-12478
7.9001,15088,-12506
7.9021,15083,-12513
7.903,15088,-12531
7.903,15091,-12521
7.9031,15082,-12522
7.904,15080,-12518
7.904,15085,-12517
7.904,15098,-12514
7.9041,15080,-12495
7.906,15078,-12500
7.906,15060,-12500
7.9069,15076,-12511
7.9051,15095,-12499
7.9072,15112,-12507
7.9109,15109,-12513
7.909,15086,-12496
7.9099,15082,-12509
7.9081,15114,-12507
7.9091,15101,-12504
7.9109,15102,-12488
7.909,15092,-12479
7.9092,15123,-12477
7.913,15108,-12483
7.913,15077,-12469
7.9129,15098,-12498
7.9112,15086,-12484
7.9149,15093,-12527
7.9131,15083,-12531
7.915,15090,-12500
7.915,15085,-12507
7.916,15065,-12505
7.9151,15060,-12530
7.917,15062,-12513
7.918,15052,-12529
7.9189,15049,-12501
7.9171,15047,-12505
7.919,15039,-12534
7.919,15020,-12507
7.919,15022,-12495
7.92,15025,-12503
7.92,15000,-12503
7.9191,15006,-12511
7.9211,14991,-12533
7.923,14980,-12536
7.9231,14997,-12525
7.9249,14980,-12496
7.923,14983,-12486
7.924,15007,-12497
7.925,14990,-12520
7.9261,14957,-12514
7.9279,14946,-12505
7.9261,14946,-12515
7.928,14944,-12520
7.9271,14954,-12530
7.929,14956,-12512
7.929,14953,-12526
7.9291,14960,-12541
7.931,14916,-12530
7.931,14910,-12523
7.931,14929,-12502
7.9321,14924,-12500
7.934,14919,-12510
7.933,14926,-12511
7.9349,14915,-12516
7.932,14905,-12529
7.934,14902,-12518
7.935,14928,-12496
7.9351,14905,-12494
7.938,14923,-12515
7.936,14913,-12498
7.937,14913,-12517
7.937,14909,-12506
7.939,14905,-12527
7.938,14900,-12541
7.939,14887,-12582
7.94,14895,-12582
7.94,14859,-12553
7.941,14895,-12538
7.942,14872,-12539
7.941,14888,-12521
7.941,14896,-12530
7.943,14888,-12524
7.945,14881,-12547
7.946,14867,-12520
7.947,14871,-12539
7.945,14879,-12525
7.946,14871,-12543
7.947,14838,-12522
7.947,14862,-12537
7.949,14866,-12558
7.949,14869,-12541
7.95,14880,-12549
7.95,14876,-12559
7.948,14851,-12541
7.951,14844,-12570
7.953,14839,-12555
7.952,14840,-12579
7.954,14838,-12590
7.953,14860,-12576
7.956,14839,-12571
7.954,14827,-12568
7.954,14833,-12562
7.957,14830,-12553
7.957,14849,-12557
7.959,14827,-12562
7.959,14813,-12566
7.959,14818,-12560
7.959,14831,-12558
7.96,14817,-12550
7.961,14824,-12548
7.961,14834,-12557
7.962,14831,-12557
7.963,14796,-12538
7.963,14782,-12539
7.965,14802,-12599
7.966,14793,-12609
7.965,14821,-12562
7.966,14795,-12603
7.966,14815,-12598
7.969,14816,-12594
7.969,14806,-12605
7.97,14817,-12598
7.969,14835,-12596
7.97,14831,-12583
7.972,14817,-12610
7.972,14809,-12590
7.974,14832,-12602
7.972,14827,-12595
7.974,14815,-12596
7.973,14819,-12596
7.975,14830,-12612
7.975,14809,-12609
7.975,14816,-12613
7.977,14819,-12609
7.978,14798,-12604
7.979,14822,-12607
7.98,14848,-12608
7.981,14825,-12615
7.98,14824,-12594
7.981,14847,-12613
7.9829,14839,-12613
7.984,14862,-12622
7.984,14866,-12618
7.9859,14879,-12602
7.985,14858,-12599
7.985,14846,-12620
7.9879,14840,-12612
7.987,14857,-12617
7.9889,14857,-12619
7.9909,14858,-12634
7.991,14830,-12638
7.992,14824,-12646
7.992,14819,-12632
7.9939,14803,-12622
7.994,14775,-12610
7.995,14772,-12604
7.996,14734,-12602
7.997,14738,-12648
7.998,14733,-12661
7.998,14724,-12657
7.999,14704,-12670
7.9971,14693,-12664
8.0008,14687,-12651
8.002,14667,-12682
8.0039,14677,-12672
8.003,14664,-12614
8.004,14675,-12670
8.005,14662,-12673
8.005,14649,-12680
8.006,14640,-12685
8.006,14597,-12702
8.0079,14639,-12694
8.009,14640,-12706
8.01,14622,-12695
8.009,14608,-12678
8.01,14629,-12697
8.0138,14588,-12692
8.014,14611,-12713
8.014,14591,-12713
8.013,14610,-12692
8.0159,14614,-12684
8.0169,14625,-12675
8.016,14593,-12684
8.0179,14615,-12682
8.019,14606,-12707
8.0199,14608,-12711
8.02,14609,-12716
8.0219,14586,-12719
8.0211,14566,-12720
8.022,14592,-12713
8.0248,14562,-12728
8.025,14591,-12743
8.0278,14608,-12742
8.028,14599,-12723
8.028,14585,-12700
8.0299,14575,-12710
8.03,14574,-12705
8.0319,14587,-12709
8.032,14598,-12724
8.0339,14600,-12739
8.034,14593,-12761
8.0349,14584,-12764
8.035,14578,-12756
8.0341,14548,-12748
8.0359,14553,-12755
8.0397,14519,-12735
8.0409,14469,-12738
8.0401,14456,-12756
8.0409,14482,-12781
8.0429,14481,-12755
8.0439,14500,-12752
8.044,14541,-12707
8.0449,14616,-12697
8.0469,14680,-12740
8.0479,14755,-12745
8.048,14893,-12766
8.048,15066,-12715
8.0526,15277,-12744
8.053,15486,-12716
8.0539,15631,-12705
8.0531,15809,-12703
8.053,15925,-12718
8.0558,16012,-12732
8.056,16152,-12720
8.0569,16211,-12722
8.0579,16193,-12748
8.0589,16187,-12757
8.0599,16114,-12734
8.0609,15919,-12750
8.0628,15774,-12760
8.063,15640,-12768
8.0648,15462,-12789
8.0678,15296,-12829
8.0689,15128,-12831
8.0699,14969,-12844
8.07,14847,-12844
8.0718,14736,-12801
8.072,14646,-12791
8.0738,14573,-12797
8.074,14572,-12791
8.0749,14558,-12817
8.0759,14560,-12811
8.076,14536,-12837
8.0787,14525,-12834
8.0799,14550,-12829
8.08,14549,-12818
8.0818,14568,-12809
8.0829,14584,-12824
8.0857,14575,-12821
8.086,14590,-12805
8.0869,14569,-12827
8.0879,14534,-12810
8.0871,14573,-12843
8.0879,14558,-12850
8.0916,14567,-12847
8.092,14540,-12834
8.0929,14529,-12807
8.0939,14544,-12823
8.0958,14534,-12838
8.096,14520,-12856
8.0969,14516,-12858
8.0997,14526,-12850
8.1,14506,-12846
8.0991,14518,-12849
8.1017,14525,-12841
8.1029,14501,-12862
8.1048,14497,-12852
8.1041,14508,-12856
8.1067,14519,-12839
8.107,14512,-12837
8.1079,14503,-12853
8.1107,14517,-12876
8.1119,14513,-12893
8.1111,14537,-12874
8.1119,14527,-12887
8.1138,14513,-12879
8.1131,14508,-12885
8.1175,14506,-12881
8.118,14515,-12876
8.1189,14492,-12875
8.1199,14489,-12870
8.1209,14495,-12878
8.1228,14491,-12906
8.123,14504,-12915
8.1248,14526,-12918
8.1268,14526,-12895
8.127,14534,-12893
8.1279,14528,-12881
8.1298,14512,-12886
8.13,14515,-12914
8.1309,14515,-12905
8.1319,14516,-12893
8.1338,14503,-12899
8.1349,14500,-12888
8.1368,14526,-12880
8.137,14531,-12894
8.1379,14532,-12870
8.1398,14557,-12900
8.1418,14545,-12906
8.1402,14539,-12919
8.1444,14503,-12912
8.1468,14497,-12909
8.1452,14503,-12915
8.1485,14533,-12927
8.1481,14515,-12920
8.1489,14518,-12912
8.149,14538,-12911
8.1499,14538,-12890
8.1526,14547,-12912
8.153,14537,-12902
8.1547,14517,-12894
8.1576,14511,-12921
8.1598,14517,-12916
8.1591,14530,-12922
8.1599,14533,-12913
8.16,14538,-12924
8.1617,14531,-12937
8.162,14533,-12917
8.1637,14530,-12898
8.1657,14525,-12923
8.166,14535,-12946
8.1686,14515,-12962
8.1673,14528,-12937
8.1705,14530,-12952
8.1701,14530,-12965
8.1717,14533,-12979
8.1737,14533,-12968
8.1757,14542,-12955
8.176,14539,-12947
8.1769,14535,-12968
8.1796,14547,-12961
8.1783,14543,-12977
8.1797,14545,-12977
8.1826,14549,-12978
8.183,14542,-12967
8.1821,14544,-12952
8.1846,14535,-12942
8.1867,14548,-12958
8.1879,14552,-12950
8.1889,14562,-12959
8.1899,14562,-12986
8.1909,14551,-12983
8.1919,14560,-13004
8.192,14557,-13031
8.1929,14514,-13014
8.1956,14552,-13027
8.1968,14562,-13011
8.1979,14552,-12987
8.2006,14550,-13001
8.1993,14560,-12958
8.2016,14552,-12962
8.2028,14530,-12975
8.2038,14544,-12941
8.2032,14572,-12969
8.2064,14541,-12992
8.2079,14543,-12986
8.2072,14583,-12998
8.2087,14567,-13011
8.2107,14557,-13010
8.211,14569,-13008
8.2135,14569,-13022
8.214,14571,-13031
8.214,14572,-13047
8.2148,14570,-13033
8.2167,14559,-13017
8.2187,14568,-13037
8.2182,14574,-13027
8.2214,14572,-13032
8.222,14558,-13041
8.2245,14563,-13037
8.2225,14553,-13063
8.2245,14527,-13055
8.225,14521,-13064
8.2275,14540,-13074
8.2288,14524,-13067
8.229,14519,-13052
8.2298,14518,-13057
8.2308,14488,-13048
8.2302,14492,-13038
8.2333,14509,-13053
8.2365,14505,-13066
8.237,14492,-13063
8.237,14468,-13053
8.2362,14474,-13031
8.2377,14465,-13048
8.2397,14456,-13029
8.24,14442,-13058
8.2417,14473,-13084
8.242,14464,-13070
8.2453,14463,-13079
8.2443,14459,-13088
8.2448,14442,-13076
8.2467,14431,-13078
8.2495,14403,-13101
8.2492,14406,-13079
8.2498,14399,-13088
8.2508,14411,-13080
8.2526,14417,-13081
8.2522,14407,-13081
8.2545,14413,-13077
8.255,14405,-13087
8.2558,14398,-13084
8.2585,14400,-13094
8.2574,14396,-13099
8.2595,14414,-13103
8.2584,14404,-13098
8.2596,14391,-13093
8.26,14388,-13088
8.2608,14401,-13093
8.2626,14409,-13104
8.263,14379,-13092
8.263,14382,-13074
8.2654,14385,-13087
8.2684,14358,-13063
8.269,14368,-13102
8.269,14363,-13108
8.2706,14366,-13088
8.271,14387,-13097
8.2718,14364,-13093
8.2712,14380,-13078
8.2742,14372,-13088
8.2758,14377,-13103
8.276,14377,-13081
8.276,14364,-13084
8.2776,14336,-13092
8.2788,14341,-13106
8.279,14362,-13120
8.279,14355,-13102
8.2814,14365,-13102
8.2812,14361,-13104
8.2818,14355,-13092
8.2812,14364,-13102
8.2834,14344,-13098
8.2848,14344,-13119
8.285,14339,-13114
8.2858,14333,-13106
8.2876,14342,-13110
8.288,14346,-13118
8.288,14354,-13135
8.2896,14350,-13110
8.2908,14335,-13079
8.2926,14354,-13094
8.2922,14343,-13087
8.2928,14352,-13091
8.2946,14351,-13099
8.295,14334,-13102
8.2958,14334,-13108
8.2984,14331,-13112
8.2982,14325,-13107
8.2996,14316,-13114
8.2992,14324,-13120
8.3006,14321,-13117
8.3018,14315,-13116
8.3012,14337,-13108
8.3026,14314,-13120
8.303,14332,-13111
8.3046,14349,-13115
8.305,14314,-13125
8.3058,14319,-13114
8.3076,14325,-13105
8.3072,14328,-13070
8.3078,14339,-13091
8.3088,14347,-13103
8.309,14356,-13086
8.3106,14355,-13073
8.311,14350,-13072
8.3118,14382,-13076
8.3136,14342,-13085
8.3132,14353,-13102
8.3146,14351,-13128
8.3142,14332,-13116
8.3156,14326,-13113
8.3168,14320,-13103
8.3178,14315,-13116
8.3196,14303,-13119
8.3192,14348,-13128
8.319,14347,-13139
8.319,14355,-13148
8.3206,14350,-13146
8.321,14362,-13148
8.3233,14367,-13151
8.3232,14357,-13137
8.3238,14330,-13110
8.3255,14357,-13103
8.3268,14377,-13114
8.3262,14386,-13112
8.3268,14386,-13112
8.327,14387,-13110
8.3278,14378,-13127
8.3288,14354,-13137
8.3298,14338,-13112
8.33,14325,-13118
8.33,14313,-13153
8.3308,14315,-13158
8.331,14316,-13168
8.3325,14298,-13178
8.333,14301,-13176
8.3322,14259,-13163
8.3335,14228,-13144
8.3332,14213,-13142
8.333,14196,-13168
8.3361,14213,-13165
8.3362,14225,-13179
8.336,14195,-13170
8.3368,14182,-13181
8.3378,14162,-13199
8.338,14182,-13194
8.3395,14149,-13190
8.34,14150,-13184
8.34,14167,-13200
8.3408,14164,-13198
8.3402,14132,-13213
8.343,14136,-13214
8.3432,14151,-13217
8.3445,14121,-13210
8.3435,14130,-13219
8.343,14112,-13224
8.3438,14107,-13199
8.3447,14106,-13209
8.345,14122,-13222
8.3458,14102,-13235
8.3468,14076,-13226
8.3477,14075,-13230
8.348,14082,-13232
8.3473,14060,-13224
8.3485,14055,-13225
8.3498,14065,-13232
8.3507,14073,-13242
8.3517,14067,-13237
8.352,14079,-13238
8.352,14066,-13228
8.352,14087,-13239
8.3528,14105,-13263
8.3537,14098,-13266
8.354,14094,-13246
8.3547,14104,-13254
8.3543,14112,-13259
8.3547,14104,-13269
8.3565,14136,-13273
8.357,14152,-13255
8.3562,14147,-13237
8.3553,14163,-13237
8.3572,14179,-13248
8.3573,14152,-13263
8.3585,14078,-13292
8.3597,13966,-13257
8.3593,13914,-13274
8.3597,13876,-13278
8.3615,13847,-13282
8.362,13869,-13271
8.362,13872,-13270
8.3613,13908,-13286
8.3625,13918,-13280
8.363,13929,-13285
8.363,14019,-13287
8.363,14109,-13272
8.363,14195,-13272
8.3637,14332,-13281
8.364,14537,-13276
8.3647,14749,-13269
8.3657,14955,-13276
8.366,15133,-13264
8.3675,15299,-13276
8.3665,15400,-13262
8.3667,15493,-13278
8.3677,15657,-13287
8.3687,15710,-13299
8.369,15719,-13303
8.369,15706,-13332
8.3705,15598,-13341
8.3717,15426,-13356
8.3705,15278,-13359
8.3715,15151,-13351
8.3713,14972,-13356
8.3725,14766,-13370
8.373,14576,-13362
8.3745,14414,-13360
8.375,14288,-13366
8.375,14193,-13378
8.3765,14111,-13381
8.3763,14072,-13377
8.376,14070,-13367
8.376,14068,-13351
8.3753,14056,-13347
8.3779,14023,-13345
8.3768,14017,-13334
8.3782,14032,-13341
8.3775,14053,-13340
8.3785,14060,-13346
8.3797,14069,-13375
8.38,14049,-13390
8.3807,14048,-13391
8.381,14048,-13368
8.381,14006,-13369
8.3832,13986,-13381
8.3826,13982,-13382
8.3805,13954,-13390
8.3814,13961,-13374
8.3827,13943,-13365
8.383,13960,-13363
8.383,13974,-13380
8.3844,13967,-13385
8.385,13994,-13375
8.385,14007,-13390
8.3857,14001,-13393
8.3867,13956,-13383
8.3863,13925,-13386
8.3874,13921,-13390
8.3887,13921,-13393
8.389,13908,-13378
8.3897,13921,-13376
8.3893,13953,-13394
8.3912,13945,-13384
8.3927,13941,-13392
8.3894,13940,-13403
8.3902,13947,-13407
8.391,13943,-13411
8.3924,13960,-13403
8.3923,13974,-13404
8.3934,13967,-13410
8.394,13980,-13434
8.3926,13982,-13435
8.3934,13997,-13421
8.3954,14013,-13412
8.3953,14075,-13405
8.3957,14099,-13409
8.3953,14042,-13400
8.3979,13925,-13397
8.3983,13861,-13398
8.3973,13798,-13408
8.397,13817,-13423
8.3984,13827,-13423
8.399,13842,-13411
8.3997,13877,-13406
8.4,13904,-13427
8.4014,13908,-13429
8.402,13930,-13424
8.4027,13926,-13440
8.4023,13925,-13444
8.4027,13912,-13440
8.4037,13914,-13443
8.4033,13916,-13454
8.403,13937,-13447
8.4044,13921,-13435
8.405,13912,-13435
8.4057,13892,-13459
8.4046,13888,-13458
8.4054,13884,-13440
8.406,13883,-13446
8.4074,13892,-13453
8.4066,13895,-13458
8.4081,13895,-13455
8.4076,13917,-13471
8.4077,13940,-13477
8.4094,13937,-13469
8.41,13941,-13455
8.4107,13931,-13473
8.4117,13916,-13478
8.4113,13898,-13478
8.4124,13883,-13488
8.4137,13880,-13500
8.4126,13882,-13500
8.4127,13879,-13489
8.413,13883,-13499
8.4144,13899,-13506
8.415,13909,-13496
8.4143,13911,-13494
8.4154,13918,-13503
8.416,13905,-13493
8.416,13905,-13482
8.4174,13909,-13496
8.418,13910,-13503
8.418,13902,-13502
8.4187,13919,-13501
8.4197,13904,-13505
8.4193,13914,-13496
8.419,13922,-13502
8.419,13937,-13505
8.4197,13921,-13494
8.4207,13913,-13520
8.421,13903,-13537
8.4224,13890,-13543
8.4216,13905,-13537
8.4217,13916,-13527
8.4227,13927,-13533
8.4237,13929,-13530
8.4233,13940,-13543
8.4237,13928,-13547
8.4247,13918,-13545
8.4264,13923,-13533
8.4249,13937,-13545
8.4254,13943,-13546
8.4267,13947,-13548
8.427,13943,-13550
8.427,13957,-13545
8.427,13931,-13540
8.4291,13917,-13527
8.4293,13951,-13541
8.4297,13955,-13548
8.43,13948,-13533
8.43,13962,-13557
8.4286,13988,-13550
8.4301,14006,-13553
8.4317,13987,-13557
8.4306,13970,-13548
8.4307,13939,-13551
8.431,13905,-13548
8.4324,13925,-13555
8.4323,13917,-13553
8.4334,13907,-13538
8.4333,13893,-13538
8.4323,13878,-13550
8.4327,13897,-13553
8.4358,13908,-13540
8.4349,13912,-13533
8.434,13921,-13541
8.434,13915,-13527
8.4347,13917,-13521
8.4364,13896,-13518
8.4363,13880,-13539
8.4374,13883,-13555
8.438,13894,-13559
8.4366,13879,-13557
8.4374,13869,-13559
8.4387,13872,-13539
8.4383,13870,-13543
8.438,13866,-13544
8.4394,13849,-13547
8.44,13857,-13556
8.4414,13841,-13564
8.4427,13837,-13564
8.4423,13817,-13564
8.4399,13829,-13563
8.4397,13822,-13577
8.44,13824,-13587
8.4414,13825,-13576
8.442,13796,-13561
8.4434,13798,-13555
8.442,13812,-13555
8.4437,13807,-13548
8.4443,13795,-13562
8.4447,13796,-13568
8.4443,13803,-13566
8.4447,13805,-13562
8.445,13800,-13570
8.445,13801,-13559
8.445,13793,-13554
8.445,13789,-13574
8.445,13774,-13568
8.4457,13777,-13567
8.4446,13764,-13560
8.4453,13758,-13560
8.446,13762,-13575
8.4474,13768,-13587
8.448,13760,-13589
8.4473,13771,-13575
8.4477,13780,-13578
8.4473,13787,-13563
8.449,13802,-13560
8.4487,13791,-13572
8.448,13776,-13571
8.4487,13768,-13561
8.449,13763,-13574
8.4483,13750,-13594
8.4493,13729,-13589
8.45,13728,-13575
8.4507,13738,-13566
8.4503,13744,-13558
8.4513,13750,-13589
8.4527,13755,-13586
8.4523,13748,-13600
8.452,13743,-13630
8.4527,13738,-13628
8.453,13718,-13618
8.453,13727,-13610
8.4523,13734,-13608
8.454,13748,-13621
8.4543,13733,-13612
8.454,13741,-13600
8.4547,13730,-13599
8.4543,13739,-13630
8.4567,13748,-13619
8.4567,13715,-13612
8.456,13729,-13614
8.4567,13739,-13612
8.4577,13728,-13614
8.456,13728,-13611
8.455,13716,-13609
8.4563,13709,-13603
8.457,13730,-13607
8.457,13722,-13604
8.459,13720,-13613
8.46,13720,-13620
8.4587,13726,-13622
8.458,13736,-13620
8.4573,13733,-13616
8.457,13767,-13624
8.4577,13771,-13610
8.4573,13776,-13609
8.4596,13788,-13612
8.4597,13792,-13597
8.4583,13788,-13596
8.4593,13778,-13634
8.4593,13765,-13649
8.4603,13765,-13640
8.461,13774,-13650
8.4603,13770,-13669
8.4607,13764,-13663
8.4603,13757,-13662
8.46,13766,-13670
8.46,13766,-13667
8.4613,13766,-13663
8.4627,13768,-13663
8.4637,13781,-13664
8.4633,13787,-13657
8.4617,13810,-13640
8.461,13789,-13636
8.4623,13780,-13644
8.4617,13800,-13662
8.463,13806,-13664
8.4627,13800,-13646
8.4627,13804,-13646
8.4624,13810,-13667
8.4627,13812,-13677
8.4636,13817,-13697
8.4647,13824,-13704
8.4657,13809,-13690
8.4647,13810,-13677
8.464,13787,-13680
8.464,13786,-13677
8.464,13769,-13671
8.4653,13760,-13688
8.4654,13744,-13695
8.4657,13730,-13686
8.466,13732,-13678
8.4654,13718,-13680
8.4657,13697,-13681
8.4654,13691,-13685
8.4663,13699,-13676
8.4664,13690,-13674
8.466,13683,-13686
8.4679,13669,-13678
8.4683,13670,-13699
8.4687,13656,-13699
8.4677,13650,-13710
8.4683,13647,-13720
8.4671,13644,-13720
8.466,13624,-13708
8.4679,13603,-13687
8.4684,13602,-13683
8.4693,13588,-13653
8.4687,13584,-13690
8.4674,13571,-13708
8.4676,13577,-13708
8.4686,13611,-13732
8.469,13612,-13715
8.4696,13592,-13739
8.4706,13592,-13735
8.4704,13581,-13722
8.4694,13580,-13737
8.4703,13579,-13744
8.471,13594,-13741
8.4691,13585,-13739
8.4699,13561,-13733
8.471,13585,-13743
8.471,13589,-13743
8.4704,13565,-13732
8.4706,13573,-13718
8.4716,13584,-13712
8.4707,13577,-13734
8.4706,13601,-13734
8.4716,13595,-13721
8.4714,13576,-13732
8.4716,13598,-13742
8.4726,13607,-13728
8.4724,13597,-13725
8.4714,13588,-13718
8.4716,13581,-13731
8.4707,13607,-13766
8.4713,13621,-13773
8.4714,13601,-13759
8.471,13569,-13755
8.4704,13539,-13754
8.4706,13484,-13747
8.4704,13434,-13749
8.4706,13456,-13756
8.471,13468,-13772
8.4723,13481,-13767
8.473,13482,-13760
8.473,13514,-13769
8.473,13594,-13756
8.473,13696,-13762
8.4736,13809,-13774
8.4734,13935,-13792
8.473,14143,-13784
8.4724,14364,-13756
8.4726,14554,-13757
8.473,14720,-13766
8.4736,14898,-13756
8.4753,15009,-13752
8.4741,15116,-13751
8.4736,15241,-13776
8.4727,15305,-13801
8.4733,15311,-13803
8.4759,15281,-13803
8.4764,15156,-13829
8.476,14982,-13823
8.4754,14835,-13812
8.475,14739,-13833
8.4744,14560,-13854
8.474,14331,-13838
8.4759,14143,-13817
8.4751,13990,-13812
8.4753,13880,-13808
8.4754,13785,-13816
8.475,13685,-13841
8.4756,13604,-13814
8.476,13606,-13829
8.4754,13611,-13830
8.4756,13607,-13814
8.4754,13605,-13825
8.4756,13592,-13815
8.4766,13605,-13803
8.4758,13635,-13804
8.4762,13638,-13807
8.477,13638,-13803
8.4764,13628,-13798
8.476,13621,-13797
8.4754,13610,-13799
8.4756,13608,-13804
8.476,13620,-13799
8.4766,13612,-13819
8.4758,13621,-13841
8.4756,13610,-13843
8.476,13604,-13849
8.4766,13614,-13849
8.4764,13600,-13837
8.4754,13585,-13830
8.475,13591,-13844
8.4744,13591,-13845
8.4765,13596,-13832
8.478,13596,-13819
8.4774,13596,-13828
8.477,13602,-13837
8.4764,13593,-13827
8.4778,13586,-13832
8.4784,13608,-13848
8.4774,13608,-13832
8.4764,13603,-13828
8.4766,13608,-13841
8.4758,13615,-13841
8.4762,13617,-13843
8.4758,13600,-13845
8.4762,13597,-13847
8.477,13585,-13834
8.4782,13587,-13857
8.479,13581,-13857
8.4784,13580,-13855
8.4768,13597,-13868
8.4766,13598,-13856
8.477,13594,-13834
8.4776,13613,-13835
8.4774,13614,-13839
8.477,13617,-13851
8.4764,13617,-13850
8.476,13619,-13851
8.4754,13614,-13852
8.4768,13612,-13872
8.478,13621,-13881
8.478,13617,-13868
8.478,13619,-13866
8.4786,13621,-13864
8.4784,13625,-13855
8.4774,13630,-13862
8.4764,13627,-13861
8.4766,13637,-13854
8.4746,13623,-13849
8.4748,13617,-13846
8.476,13619,-13860
8.4754,13611,-13869
8.475,13620,-13885
8.4756,13619,-13869
8.4766,13625,-13853
8.4758,13619,-13854
8.475,13615,-13849
8.4756,13610,-13831
8.476,13633,-13851
8.4754,13640,-13882
8.475,13623,-13866
8.4738,13642,-13866
8.4742,13625,-13863
8.4744,13649,-13868
8.4746,13660,-13875
8.475,13646,-13879
8.475,13659,-13864
8.4744,13667,-13860
8.4734,13657,-13881
8.4748,13650,-13892
8.4748,13653,-13883
8.474,13637,-13870
8.474,13654,-13887
8.4752,13657,-13891
8.476,13662,-13885
8.4748,13670,-13895
8.4746,13662,-13880
8.475,13663,-13865
8.4726,13661,-13873
8.4722,13659,-13883
8.4736,13653,-13859
8.4728,13670,-13876
8.4714,13666,-13903
8.4716,13678,-13899
8.4726,13680,-13893
8.4718,13668,-13882
8.4716,13687,-13875
8.4714,13690,-13891
8.4716,13692,-13890
8.472,13689,-13891
8.4714,13691,-13895
8.4716,13713,-13894
8.4714,13725,-13901
8.471,13712,-13907
8.471,13701,-13906
8.4704,13695,-13892
8.4706,13711,-13880
8.4698,13726,-13896
8.4702,13704,-13921
8.471,13713,-13928
8.4704,13735,-13923
8.4694,13696,-13906
8.4684,13700,-13908
8.4686,13721,-13910
8.4678,13726,-13917
8.4682,13734,-13917
8.4684,13749,-13912
8.468,13754,-13916
8.4686,13743,-13912
8.469,13728,-13916
8.4684,13727,-13919
8.4686,13749,-13923
8.4696,13724,-13920
8.4682,13713,-13903
8.4664,13726,-13889
8.466,13732,-13891
8.4666,13732,-13897
8.467,13731,-13896
8.4664,13713,-13899
8.4654,13725,-13916
8.4656,13738,-13923
8.4654,13736,-13921
8.465,13738,-13918
8.4656,13716,-13912
8.4654,13712,-13914
8.4644,13699,-13908
8.4646,13691,-13899
8.4638,13696,-13892
8.4636,13680,-13881
8.464,13677,-13899
8.4634,13664,-13924
8.463,13651,-13919
8.4618,13640,-13913
8.4627,13645,-13921
8.4628,13669,-13920
8.462,13659,-13917
8.462,13639,-13913
8.462,13645,-13911
8.4614,13645,-13916
8.461,13631,-13911
8.4604,13620,-13901
8.4594,13611,-13904
8.459,13613,-13900
8.459,13609,-13895
8.4596,13590,-13903
8.4606,13587,-13905
8.4593,13609,-13912
8.458,13617,-13900
8.458,13599,-13893
8.458,13590,-13890
8.458,13581,-13896
8.458,13572,-13905
8.4574,13584,-13917
8.4576,13587,-13928
8.4574,13589,-13918
8.4564,13571,-13919
8.4577,13559,-13908
8.4573,13568,-13882
8.4554,13573,-13892
8.455,13563,-13919
8.4567,13540,-13930
8.4563,13552,-13940
8.4561,13552,-13934
8.4559,13552,-13920
8.455,13559,-13907
8.4544,13560,-13906
8.4529,13555,-13910
8.452,13561,-13904
8.452,13567,-13916
8.4526,13560,-13930
8.453,13553,-13924
8.4524,13549,-13923
8.4509,13556,-13918
8.4494,13549,-13936
8.4501,13545,-13948
8.451,13543,-13944
8.451,13555,-13943
8.4493,13550,-13931
8.4486,13534,-13914
8.449,13539,-13918
8.4479,13540,-13931
8.4476,13530,-13926
8.4474,13546,-13933
8.447,13547,-13946
8.4464,13537,-13954
8.4466,13549,-13952
8.447,13537,-13942
8.447,13531,-13944
8.4464,13521,-13945
8.4471,13527,-13953
8.4469,13537,-13953
8.4466,13528,-13945
8.4464,13538,-13944
8.4466,13532,-13923
8.4459,13525,-13924
8.4444,13530,-13933
8.444,13533,-13947
8.444,13520,-13953
8.4434,13533,-13949
8.4419,13540,-13949
8.4416,13540,-13953
8.442,13542,-13960
8.4431,13547,-13964
8.4418,13563,-13960
8.44,13572,-13960
8.4411,13580,-13956
8.4403,13586,-13948
8.4396,13593,-13942
8.4406,13583,-13947
8.4393,13583,-13955
8.4391,13596,-13956
8.4394,13577,-13962
8.4384,13566,-13959
8.4391,13564,-13960
8.4389,13565,-13967
8.4374,13574,-13964
8.437,13581,-13964
8.4376,13592,-13954
8.4374,13585,-13957
8.4364,13583,-13955
8.4349,13601,-13944
8.434,13605,-13954
8.4351,13602,-13959
8.4354,13600,-13963
8.4339,13601,-13944
8.433,13604,-13933
8.433,13613,-13944
8.4324,13614,-13960
8.4326,13605,-13967
8.4324,13594,-13961
8.4303,13597,-13967
8.4307,13609,-13974
8.4309,13590,-13981
8.4294,13582,-13963
8.4307,13585,-13953
8.4309,13583,-13959
8.4289,13561,-13953
8.4275,13542,-13961
8.427,13542,-13970
8.427,13539,-13968
8.4281,13527,-13968
8.4279,13509,-13967
8.4259,13510,-13979
8.4255,13489,-13970
8.4254,13468,-13955
8.4255,13479,-13954
8.426,13477,-13947
8.4254,13475,-13954
8.4245,13456,-13955
8.4246,13451,-13951
8.4245,13440,-13971
8.4235,13419,-13977
8.4219,13424,-13987
8.4215,13423,-13995
8.4209,13406,-13981
8.4216,13412,-13980
8.4224,13422,-13988
8.422,13421,-13985
8.4203,13418,-13977
8.419,13415,-13981
8.4185,13421,-13981
8.4191,13415,-13983
8.4189,13415,-13978
8.418,13426,-13978
8.4169,13421,-13987
8.4166,13409,-13979
8.417,13429,-13975
8.417,13430,-13974
8.4164,13411,-13974
8.4149,13428,-13979
8.4146,13437,-13972
8.4139,13427,-13973
8.4136,13428,-13971
8.414,13435,-13969
8.4146,13436,-13971
8.415,13423,-13981
8.4145,13429,-13976
8.414,13429,-13988
8.4129,13429,-13990
8.4115,13447,-13977
8.411,13458,-13982
8.4105,13455,-13979
8.41,13447,-13980
8.41,13444,-13981
8.4095,13442,-13983
8.409,13444,-13991
8.4095,13454,-13980
8.4089,13442,-13958
8.408,13395,-13964
8.4075,13361,-13962
8.4081,13354,-13972
8.4085,13347,-13988
8.4069,13337,-13991
8.4055,13348,-14006
8.405,13381,-14003
8.4055,13432,-13997
8.406,13511,-13991
8.4049,13621,-13981
8.4051,13761,-13977
8.4044,13944,-13973
8.4025,14146,-13969
8.4025,14338,-13956
8.4019,14519,-13946
8.401,14692,-13961
8.4015,14813,-13969
8.4015,14903,-13972
8.4005,15027,-13970
8.4,15103,-13953
8.3995,15123,-13950
8.3979,15138,-13959
8.3981,15060,-13968
8.3995,14905,-13994
8.3989,14740,-14015
8.398,14617,-14010
8.3969,14457,-14005
8.3965,14261,-14021
8.3954,14096,-14042
8.394,13952,-14038
8.394,13824,-14032
8.3945,13703,-14018
8.3945,13620,-14012
8.3935,13553,-14017
8.393,13529,-14019
8.3925,13523,-14020
8.392,13512,-14015
8.3925,13514,-14001
8.3914,13507,-13989
8.3905,13515,-13994
8.3915,13523,-14006
8.3909,13536,-14018
8.39,13564,-14016
8.3889,13556,-14015
8.3885,13544,-14016
8.3879,13556,-14017
8.3875,13548,-14025
8.3869,13546,-14023
8.3855,13545,-14004
8.3845,13547,-13989
8.384,13549,-14009
8.3845,13553,-14010
8.385,13555,-14004
8.3845,13552,-14004
8.3824,13550,-14019
8.3826,13539,-14028
8.384,13539,-14023
8.3835,13544,-14019
8.3825,13543,-14011
8.3809,13552,-14014
8.38,13551,-14006
8.3795,13537,-14014
8.379,13539,-14027
8.3785,13549,-14025
8.378,13553,-14020
8.3785,13559,-14016
8.3769,13566,-14013
8.3761,13580,-14018
8.3759,13577,-14023
8.375,13567,-14023
8.3745,13572,-14010
8.3729,13571,-14013
8.3731,13597,-14028
8.374,13592,-14012
8.3729,13571,-14013
8.373,13583,-14025
8.3729,13600,-14036
8.372,13608,-14029
8.3704,13593,-14027
8.3695,13612,-14036
8.3705,13618,-14019
8.3705,13605,-14014
8.3684,13607,-14015
8.367,13605,-14023
8.367,13616,-14042
8.3675,13616,-14039
8.3669,13607,-14046
8.3671,13614,-14057
8.3669,13634,-14035
8.3655,13622,-14024
8.3645,13620,-14028
8.3635,13638,-14024
8.363,13650,-14025
8.362,13657,-14034
8.3621,13651,-14024
8.363,13651,-14014
8.3609,13642,-14027
8.3595,13646,-14027
8.3595,13658,-14020
8.3585,13661,-14021
8.3575,13668,-14032
8.357,13662,-14047
8.3565,13661,-14040
8.356,13660,-14035
8.355,13658,-14034
8.355,13690,-14043
8.356,13701,-14054
8.355,13694,-14045
8.354,13692,-14048
8.354,13692,-14056
8.353,13695,-14046
8.352,13694,-14043
8.3525,13702,-14039
8.3525,13695,-14026
8.352,13701,-14020
8.351,13713,-14026
8.3505,13712,-14030
8.3494,13721,-14031
8.348,13726,-14020
8.3475,13728,-14026
8.3475,13740,-14026
8.3475,13744,-14030
8.3475,13734,-14056
8.3459,13742,-14047
8.345,13741,-14034
8.3455,13733,-14035
8.3445,13751,-14050
8.3435,13765,-14064
8.343,13745,-14053
8.343,13742,-14043
8.342,13760,-14041
8.341,13768,-14045
8.342,13782,-14035
8.3409,13768,-14030
8.339,13782,-14043
8.3375,13793,-14052
8.3375,13800,-14065
8.3375,13804,-14067
8.336,13795,-14054
8.3365,13803,-14052
8.3375,13801,-14056
8.3375,13808,-14056
8.336,13812,-14051
8.335,13817,-14050
8.3345,13825,-14043
8.333,13820,-14038
8.3315,13820,-14046
8.3315,13828,-14046
8.332,13832,-14046
8.3315,13830,-14032
8.33,13835,-14028
8.329,13851,-14041
8.328,13865,-14053
8.3275,13870,-14067
8.328,13867,-14075
8.328,13884,-14069
8.327,13887,-14044
8.326,13874,-14056
8.3255,13881,-14067
8.3255,13890,-14062
8.324,13885,-14061
8.322,13882,-14049
8.322,13888,-14055
8.3225,13883,-14066
8.323,13889,-14069
8.322,13891,-14065
8.321,13888,-14064
8.321,13890,-14048
8.321,13901,-14041
8.32,13884,-14042
8.32,13873,-14053
8.3195,13873,-14055
8.3175,13855,-14035
8.3175,13853,-14051
8.3175,13858,-14050
8.316,13869,-14039
8.3155,13877,-14036
8.316,13868,-14034
8.315,13843,-14035
8.314,13835,-14043
8.3135,13843,-14056
8.313,13845,-14069
8.3125,13833,-14072
8.3115,13847,-14053
8.311,13834,-14047
8.3115,13820,-14046
8.311,13836,-14055
8.3105,13814,-14054
8.309,13808,-14047
8.308,13811,-14038
8.3085,13813,-14036
8.3075,13824,-14025
8.3075,13823,-14029
8.3075,13828,-14046
8.306,13826,-14035
8.3055,13824,-14033
8.306,13824,-14042
8.3045,13817,-14046
8.304,13820,-14053
8.304,13817,-14069
8.3035,13799,-14063
8.3025,13798,-14057
8.3015,13819,-14064
8.302,13825,-14065
8.3015,13820,-14064
8.3005,13813,-14060
8.3,13804,-14047
8.2985,13805,-14038
8.298,13833,-14048
8.2995,13834,-14049
8.2995,13805,-14049
8.298,13818,-14062
8.2975,13821,-14071
8.2965,13819,-14068
8.2955,13825,-14071
8.296,13822,-14066
8.296,13814,-14047
8.2945,13819,-14059
8.2935,13818,-14062
8.294,13798,-14053
8.2935,13808,-14054
8.292,13811,-14070
8.2915,13815,-14094
8.2915,13819,-14098
8.291,13796,-14095
8.2905,13795,-14095
8.29,13815,-14091
8.29,13818,-14081
8.2895,13815,-14075
8.2895,13813,-14064
8.2895,13800,-14053
8.2885,13828,-14068
8.288,13828,-14065
8.2875,13802,-14062
8.287,13811,-14082
8.2865,13825,-14093
8.286,13831,-14088
8.2855,13815,-14076
8.285,13820,-14084
8.2855,13815,-14101
8.285,13795,-14090
8.2835,13797,-14076
8.2825,13809,-14081
8.2825,13817,-14096
8.2835,13814,-14095
8.2825,13811,-14082
8.2815,13817,-14077
8.2815,13805,-14072
8.281,13814,-14088
8.2805,13820,-14092
8.281,13796,-14085
8.281,13807,-14085
8.279,13811,-14097
8.278,13807,-14104
8.277,13810,-14101
8.276,13804,-14094
8.2755,13808,-14090
8.275,13802,-14088
8.276,13794,-14084
8.2765,13799,-14082
8.275,13794,-14084
8.2745,13806,-14093
8.275,13809,-14095
8.2755,13798,-14093
8.2741,13805,-14097
8.272,13812,-14096
8.272,13810,-14098
8.2725,13799,-14100
8.272,13815,-14092
8.2705,13806,-14097
8.2695,13804,-14093
8.2695,13814,-14092
8.27,13813,-14106
8.2705,13822,-14103
8.2705,13827,-14079
8.2695,13849,-14076
8.2685,13850,-14097
8.2685,13861,-14090
8.2685,13873,-14087
8.268,13873,-14097
8.268,13871,-14100
8.2675,13867,-14121
8.267,13869,-14119
8.2665,13869,-14106
8.267,13868,-14104
8.2666,13862,-14101
8.2636,13872,-14100
8.262,13878,-14086
8.2625,13874,-14084
8.2625,13874,-14101
8.263,13894,-14101
8.2626,13908,-14098
8.262,13903,-14098
8.262,13909,-14111
8.261,13903,-14116
8.2605,13906,-14101
8.26,13924,-14099
8.26,13933,-14107
8.2605,13936,-14100
8.2605,13951,-14089
8.2591,13949,-14088
8.2585,13929,-14096
8.2585,13922,-14106
8.2575,13912,-14114
8.2561,13913,-14115
8.256,13918,-14110
8.257,13916,-14103
8.2565,13896,-14099
8.256,13882,-14095
8.2555,13880,-14089
8.255,13860,-14093
8.2545,13843,-14105
8.2535,13844,-14111
8.2539,13834,-14113
8.2555,13828,-14126
8.2546,13814,-14113
8.2535,13797,-14109
8.2531,13805,-14117
8.252,13802,-14116
8.252,13804,-14106
8.2515,13800,-14100
8.251,13779,-14104
8.2519,13773,-14107
8.2516,13784,-14118
8.2505,13782,-14114
8.2505,13773,-14129
8.2491,13768,-14126
8.2489,13765,-14115
8.25,13746,-14120
8.2495,13748,-14119
8.249,13761,-14119
8.2495,13751,-14112
8.2486,13744,-14120
8.2465,13751,-14114
8.2469,13760,-14112
8.2471,13753,-14126
8.246,13756,-14118
8.2455,13759,-14104
8.2445,13754,-14097
8.2454,13747,-14100
8.2461,13752,-14105
8.245,13746,-14105
8.2441,13752,-14110
8.243,13767,-14118
8.2425,13766,-14116
8.2425,13754,-14106
8.2421,13746,-14126
8.2415,13763,-14138
8.2416,13768,-14129
8.2415,13768,-14124
8.2416,13760,-14122
8.2415,13756,-14125
8.2416,13759,-14120
8.241,13759,-14115
8.2406,13767,-14118
8.2404,13753,-14118
8.2406,13737,-14116
8.2396,13739,-14110
8.2394,13717,-14121
8.24,13681,-14127
8.2391,13624,-14120
8.2384,13619,-14132
8.2386,13621,-14129
8.238,13623,-14122
8.2376,13640,-14116
8.2366,13673,-14122
8.2364,13734,-14118
8.2366,13813,-14113
8.2356,13931,-14133
8.2341,14073,-14142
8.2339,14270,-14131
8.2359,14482,-14109
8.2366,14687,-14101
8.2356,14870,-14108
8.2341,15041,-14112
8.2334,15175,-14120
8.234,15296,-14118
8.2336,15435,-14111
8.233,15512,-14121
8.233,15524,-14135
8.2326,15505,-14138
8.2316,15414,-14145
8.2306,15254,-14158
8.2304,15109,-14170
8.2314,14990,-14171
8.2316,14802,-14163
8.2318,14574,-14169
8.2318,14380,-14171
8.2304,14204,-14164
8.2302,14083,-14162
8.229,13982,-14158
8.2294,13904,-14155
8.23,13871,-14165
8.228,13841,-14161
8.2266,13827,-14162
8.2286,13828,-14159
8.228,13827,-14166
8.2284,13825,-14159
8.2286,13825,-14156
8.2276,13826,-14156
8.2266,13834,-14149
8.226,13831,-14148
8.226,13810,-14140
8.2256,13809,-14148
8.225,13804,-14150
8.2254,13791,-14135
8.226,13783,-14124
8.2252,13793,-14141
8.2244,13798,-14132
8.2258,13784,-14129
8.2262,13802,-14131
8.225,13796,-14150
8.2246,13776,-14161
8.2236,13775,-14152
8.223,13776,-14156
8.223,13785,-14161
8.223,13786,-14172
8.223,13781,-14165
8.2222,13780,-14159
8.221,13783,-14160
8.221,13792,-14159
8.2214,13790,-14168
8.2216,13791,-14170
8.2214,13794,-14159
8.2212,13788,-14151
8.22,13792,-14162
8.2196,13799,-14162
8.2197,13799,-14160
8.2203,13791,-14167
8.219,13802,-14157
8.219,13799,-14158
8.219,13805,-14161
8.219,13808,-14150
8.2183,13808,-14156
8.2177,13798,-14161
8.2179,13805,-14166
8.2167,13816,-14171
8.218,13802,-14167
8.2173,13799,-14171
8.2164,13806,-14167
8.217,13807,-14173
8.2163,13821,-14168
8.2161,13813,-14166
8.2176,13819,-14160
8.2166,13814,-14159
8.216,13817,-14157
8.2164,13822,-14161
8.217,13810,-14178
8.2159,13805,-14178
8.2143,13830,-14174
8.215,13843,-14180
8.214,13854,-14156
8.213,13833,-14150
8.2143,13830,-14157
8.213,13846,-14167
8.2133,13840,-14183
8.213,13844,-14182
8.2113,13841,-14177
8.2117,13840,-14176
8.211,13834,-14169
8.211,13841,-14169
8.2117,13861,-14156
8.2127,13852,-14153
8.212,13848,-14160
8.211,13843,-14156
8.2097,13846,-14158
8.2103,13854,-14160
8.2093,13854,-14183
8.21,13849,-14189
8.2097,13854,-14171
8.2087,13865,-14173
8.2083,13872,-14187
8.2087,13879,-14188
8.208,13882,-14188
8.2077,13887,-14192
8.2067,13895,-14196
8.2063,13880,-14193
8.2067,13885,-14184
8.2066,13883,-14186
8.2077,13885,-14197
8.2064,13894,-14190
8.2053,13909,-14192
8.206,13914,-14192
8.206,13896,-14187
8.2057,13925,-14175
8.205,13922,-14175
8.2047,13910,-14179
8.2043,13914,-14201
8.2044,13923,-14213
8.2036,13931,-14209
8.2044,13934,-14190
8.2033,13933,-14194
8.204,13941,-14194
8.204,13943,-14199
8.2037,13942,-14195
8.203,13948,-14198
8.203,13955,-14198
8.203,13964,-14200
8.2024,13972,-14200
8.2016,13975,-14194
8.2024,13970,-14189
8.2007,13982,-14182
8.1994,13991,-14187
8.1986,13976,-14205
8.1994,13989,-14211
8.1986,13999,-14217
8.2,13991,-14211
8.2003,14000,-14215
8.2013,14013,-14222
8.2014,14010,-14214
8.2003,14020,-14208
8.2004,14019,-14213
8.1993,14020,-14214
8.1994,14018,-14200
8.1983,14016,-14203
8.1987,14016,-14201
8.198,14033,-14200
8.1977,14029,-14209
8.1976,14039,-14219
8.1984,14047,-14215
8.1973,14038,-14214
8.1977,14044,-14216
8.197,14051,-14198
8.1967,14045,-14179
8.196,14034,-14178
8.196,14050,-14171
8.196,14042,-14186
8.1957,14038,-14212
8.1953,14022,-14215
8.196,14023,-14208
8.1952,14033,-14200
8.1935,14035,-14198
8.1942,14026,-14205
8.192,14020,-14203
8.1928,14011,-14206
8.1945,14014,-14202
8.1927,14005,-14190
8.1923,13996,-14196
8.193,13998,-14196
8.1927,14004,-14199
8.1923,13993,-14206
8.1927,13988,-14207
8.1917,13997,-14209
8.1913,13996,-14193
8.192,13986,-14202
8.1915,13983,-14191
8.19,13993,-14193
8.19,13986,-14191
8.1905,13988,-14183
8.1918,13988,-14187
8.1905,13986,-14197
8.1888,13977,-14210
8.1882,13990,-14196
8.1885,13991,-14207
8.1872,13980,-14202
8.188,13980,-14203
8.188,13978,-14216
8.1885,13988,-14203
8.1895,13989,-14195
8.1875,13988,-14196
8.1855,13978,-14197
8.1847,13977,-14203
8.1865,13987,-14214
8.185,13996,-14212
8.185,13991,-14203
8.1848,13996,-14199
8.1842,14004,-14205
8.1852,14005,-14205
8.1855,13996,-14210
8.184,13991,-14210
8.1842,13987,-14214
8.1845,13987,-14222
8.1832,13997,-14213
8.1836,14025,-14200
8.1822,14009,-14206
8.1828,13998,-14208
8.1824,14005,-14205
8.1831,13984,-14215
8.1804,13994,-14216
8.1818,14000,-14216
8.181,14009,-14212
8.1808,14004,-14213
8.18,13997,-14199
8.1798,13985,-14208
8.1792,13990,-14190
8.18,14015,-14205
8.18,14008,-14207
8.1796,13995,-14210
8.1782,13996,-14208
8.1788,13979,-14206
8.178,13986,-14214
8.1782,13994,-14215
8.1788,14002,-14211
8.1776,14004,-14214
8.1762,13999,-14216
8.1768,14000,-14218
8.176,14009,-14177
8.1758,13997,-14191
8.1752,14009,-14193
8.176,14009,-14207
8.1758,14004,-14214
8.1744,14005,-14223
8.1722,13998,-14228
8.1734,14013,-14237
8.1748,14014,-14237
8.174,14013,-14225
8.1742,14005,-14224
8.1746,14001,-14212
8.173,14009,-14218
8.1726,14009,-14222
8.1716,14003,-14246
8.1735,14003,-14259
8.171,13996,-14255
8.1708,14003,-14248
8.1702,13994,-14250
8.1706,13997,-14238
8.1688,14007,-14242
8.1684,14011,-14227
8.1697,14001,-14238
8.1685,13995,-14244
8.1707,14014,-14231
8.1688,14002,-14236
8.1678,14007,-14235
8.167,13993,-14241
8.1665,14005,-14231
8.1647,14005,-14232
8.1677,13997,-14238
8.1658,14000,-14238
8.1653,14002,-14236
8.1667,13997,-14228
8.1653,13999,-14230
8.1665,13992,-14238
8.1638,13995,-14241
8.1632,13981,-14247
8.1642,13992,-14246
8.1648,13985,-14238
8.1638,13984,-14232
8.1632,13978,-14244
8.1637,13981,-14238
8.162,13987,-14251
8.1618,13972,-14246
8.1607,13988,-14249
8.1592,13992,-14246
8.1601,13996,-14237
8.1608,13999,-14254
8.1599,14010,-14245
8.1592,14026,-14245
8.1599,14043,-14239
8.1587,14052,-14233
8.1571,14069,-14236
8.1579,14082,-14231
8.1571,14083,-14241
8.1577,14077,-14249
8.1561,14071,-14239
8.1571,14089,-14236
8.1574,14073,-14241
8.1544,14071,-14249
8.1566,14068,-14246
8.1541,14064,-14260
8.155,14063,-14260
8.1551,14069,-14267
8.1556,14076,-14273
8.1533,14094,-14270
8.1547,14100,-14240
8.153,14111,-14233
8.1529,14099,-14227
8.1521,14121,-14229
8.1529,14121,-14223
8.152,14132,-14227
8.1519,14146,-14244
8.1512,14156,-14255
8.1527,14147,-14251
8.151,14147,-14255
8.151,14138,-14261
8.1509,14124,-14266
8.1498,14113,-14272
8.1481,14115,-14263
8.1489,14106,-14252
8.1477,14091,-14250
8.1452,14081,-14246
8.147,14069,-14259
8.1469,14072,-14276
8.146,14056,-14280
8.146,14040,-14278
8.1458,14021,-14270
8.1442,14024,-14272
8.1459,14022,-14266
8.145,14005,-14278
8.145,13990,-14277
8.1449,13988,-14277
8.1438,13983,-14286
8.142,13977,-14282
8.1421,13976,-14279
8.1429,13956,-14275
8.142,13949,-14278
8.142,13963,-14274
8.1418,13949,-14261
8.14,13955,-14265
8.14,13956,-14276
8.1401,13942,-14271
8.1409,13927,-14279
8.1399,13923,-14270
8.139,13923,-14287
8.1389,13934,-14289
8.1378,13924,-14280
8.1358,13932,-14270
8.1342,13937,-14260
8.1361,13933,-14277
8.1369,13939,-14282
8.1359,13928,-14296
8.135,13928,-14310
8.1349,13927,-14296
8.1342,13928,-14276
8.1368,13925,-14294
8.1347,13933,-14292
8.1313,13922,-14299
8.1348,13926,-14291
8.132,13922,-14296
8.1319,13919,-14283
8.1302,13932,-14286
8.1319,13928,-14290
8.13,13928,-14291
8.1301,13930,-14284
8.1309,13919,-14289
8.13,13920,-14286
8.1299,13909,-14277
8.128,13917,-14282
8.128,13918,-14287
8.128,13911,-14278
8.1279,13900,-14282
8.1269,13889,-14281
8.1261,13846,-14279
8.1271,13821,-14281
8.1278,13797,-14287
8.1241,13802,-14272
8.1259,13804,-14282
8.1239,13815,-14297
8.1221,13838,-14288
8.1231,13910,-14300
8.124,13974,-14295
8.124,14075,-14281
8.124,14233,-14275
8.123,14401,-14264
8.1229,14602,-14245
8.121,14849,-14255
8.12,15029,-14271
8.12,15217,-14268
8.12,15381,-14262
8.12,15506,-14264
8.1209,15647,-14262
8.119,15735,-14263
8.119,15739,-14280
8.118,15721,-14306
8.118,15707,-14308
8.117,15558,-14331
8.116,15422,-14341
8.116,15273,-14322
8.1159,15099,-14339
8.114,14817,-14341
8.114,14593,-14338
8.1139,14400,-14329
8.1121,14282,-14327
8.114,14192,-14327
8.114,14110,-14324
8.113,14076,-14334
8.112,14059,-14327
8.113,14056,-14314
8.112,14045,-14316
8.11,14020,-14305
8.109,14011,-14306
8.1081,14013,-14294
8.111,14016,-14299
8.109,14011,-14298
8.11,14010,-14301
8.109,13980,-14286
8.108,13982,-14295
8.109,13977,-14312
8.107,13973,-14308
8.107,13987,-14304
8.106,13966,-14294
8.106,13970,-14295
8.105,13972,-14313
8.105,13969,-14307
8.103,13956,-14304
8.106,13965,-14301
8.103,13965,-14293
8.103,13962,-14302
8.101,13961,-14304
8.101,13961,-14308
8.099,13977,-14311
8.101,13961,-14300
8.1,13963,-14308
8.1,13972,-14310
8.098,13965,-14310
8.099,13968,-14308
8.096,13958,-14318
8.098,13962,-14309
8.098,13963,-14314
8.096,13965,-14310
8.098,13977,-14305
8.094,13972,-14294
8.097,13974,-14305
8.095,13976,-14307
8.094,13972,-14315
8.094,13980,-14316
8.093,13976,-14321
8.095,13976,-14321
8.096,13978,-14319
8.0911,13975,-14332
8.092,13978,-14316
8.092,13980,-14314
8.091,13969,-14316
8.092,13986,-14314
8.09,13975,-14303
8.089,13987,-14305
8.09,13987,-14321
8.089,13991,-14330
8.087,14003,-14324
8.088,13990,-14311
8.088,13996,-14315
8.0861,13986,-14316
8.086,13991,-14325
8.086,13985,-14317
8.085,13992,-14311
8.086,13989,-14324
8.085,13989,-14319
8.084,13999,-14323
8.084,13999,-14313
8.083,14003,-14322
8.083,14006,-14316
8.082,14015,-14313
8.083,14013,-14318
8.082,14014,-14307
8.0801,14007,-14316
8.0819,14006,-14318
8.0801,14016,-14312
8.08,14017,-14314
8.0781,14008,-14316
8.077,14002,-14313
8.077,14014,-14322
8.077,14030,-14322
8.0761,14037,-14316
8.075,14041,-14314
8.076,14041,-14327
8.075,14041,-14335
8.074,14047,-14329
8.0731,14037,-14336
8.073,14048,-14333
8.0721,14034,-14336
8.0739,14058,-14322
8.0711,14062,-14312
8.0701,14051,-14336
8.0719,14064,-14324
8.0701,14060,-14322
8.0709,14065,-14328
8.071,14054,-14319
8.0691,14060,-14325
8.069,14071,-14343
8.068,14083,-14354
8.0671,14085,-14349
8.067,14078,-14350
8.0679,14094,-14348
8.0651,14092,-14348
8.065,14097,-14347
8.066,14104,-14346
8.067,14100,-14356
8.0641,14103,-14358
8.0631,14110,-14355
8.064,14117,-14354
8.0621,14115,-14354
8.063,14131,-14339
8.063,14105,-14336
8.0611,14129,-14346
8.0601,14116,-14360
8.061,14146,-14361
8.061,14130,-14362
8.0601,14131,-14376
8.0581,14129,-14349
8.058,14163,-14367
8.059,14161,-14353
8.0561,14157,-14374
8.056,14168,-14362
8.056,14162,-14370
8.056,14164,-14366
8.0531,14173,-14355
8.0559,14150,-14369
8.056,14177,-14368
8.056,14164,-14370
8.0541,14164,-14373
8.053,14171,-14359
8.054,14156,-14367
8.053,14181,-14349
8.052,14224,-14350
8.052,14214,-14341
8.0501,14205,-14337
8.0519,14201,-14344
8.0491,14206,-14335
8.049,14199,-14325
8.048,14205,-14335
8.047,14204,-14342
8.0489,14200,-14341
8.049,14196,-14341
8.048,14208,-14348
8.047,14190,-14336
8.0451,14197,-14339
8.0469,14179,-14336
8.046,14170,-14327
8.045,14168,-14332
8.045,14164,-14336
8.044,14146,-14332
8.044,14171,-14350
8.044,14147,-14349
8.043,14160,-14344
8.044,14138,-14351
8.0421,14138,-14344
8.042,14141,-14345
8.0401,14130,-14350
8.041,14124,-14350
8.042,14135,-14356
8.0401,14137,-14351
8.04,14137,-14352
8.04,14142,-14345
8.0381,14142,-14342
8.039,14138,-14322
8.038,14141,-14328
8.0361,14134,-14329
8.036,14119,-14345
8.036,14135,-14363
8.0389,14125,-14371
8.0371,14137,-14369
8.0341,14143,-14362
8.033,14142,-14372
8.0359,14140,-14345
8.0341,14141,-14347
8.0321,14142,-14357
8.0339,14138,-14355
8.033,14150,-14350
8.0311,14141,-14354
8.0349,14149,-14352
8.0331,14130,-14347
8.032,14142,-14376
8.031,14147,-14380
8.032,14154,-14370
8.0291,14159,-14369
8.029,14161,-14369
8.03,14156,-14367
8.03,14149,-14378
8.03,14164,-14374
8.0281,14151,-14374
8.0299,14166,-14367
8.0281,14159,-14361
8.028,14155,-14372
8.027,14168,-14368
8.028,14169,-14363
8.029,14169,-14364
8.0261,14173,-14362
8.025,14181,-14374
8.0269,14177,-14366
8.0251,14178,-14364
8.024,14185,-14354
8.024,14170,-14358
8.024,14178,-14364
8.0221,14192,-14356
8.0239,14181,-14368
8.023,14192,-14366
8.023,14199,-14369
8.022,14198,-14382
8.0201,14201,-14377
8.02,14185,-14372
8.02,14187,-14372
8.02,14198,-14363
8.02,14202,-14372
8.019,14214,-14368
8.018,14209,-14356
8.019,14206,-14355
8.018,14215,-14361
8.018,14213,-14355
8.017,14206,-14358
8.017,14207,-14381
8.016,14219,-14366
8.015,14222,-14378
8.016,14213,-14388
8.016,14214,-14388
8.0131,14237,-14390
8.014,14233,-14389
8.016,14231,-14381
8.0131,14227,-14378
8.011,14224,-14378
8.012,14230,-14384
8.011,14233,-14381
8.012,14242,-14382
8.01,14255,-14380
8.01,14254,-14381
8.009,14247,-14357
8.01,14248,-14367
8.01,14246,-14363
8.009,14250,-14370
8.007,14249,-14375
8.007,14256,-14379
8.0051,14249,-14379
8.006,14266,-14377
8.006,14257,-14386
8.004,14264,-14375
8.004,14273,-14376
8.004,14279,-14362
8.004,14275,-14369
8.003,14275,-14374
8.001,14278,-14370
8,14272,-14383
7.999,14276,-14380
8.0019,14268,-14374
8.001,14278,-14376
7.999,14284,-14364
7.999,14287,-14370
8,14285,-14382
7.998,14295,-14377
7.997,14301,-14373
7.997,14283,-14388
7.996,14298,-14386
7.996,14287,-14393
7.996,14296,-14387
7.995,14301,-14385
7.994,14305,-14384
7.996,14305,-14375
7.994,14310,-14377
7.994,14314,-14382
7.992,14312,-14377
7.992,14308,-14380
7.99,14315,-14369
7.992,14316,-14377
7.99,14314,-14380
7.99,14317,-14386
7.989,14332,-14383
7.987,14323,-14373
7.989,14347,-14369
7.987,14329,-14390
7.986,14334,-14375
7.986,14347,-14379
7.984,14346,-14386
7.985,14345,-14387
7.983,14353,-14378
7.983,14367,-14380
7.983,14383,-14379
7.981,14397,-14367
7.982,14409,-14390
7.981,14420,-14380
7.981,14447,-14369
7.982,14457,-14366
7.979,14450,-14356
7.98,14460,-14371
7.977,14447,-14381
7.979,14447,-14383
7.978,14451,-14370
7.979,14445,-14369
7.977,14440,-14374
7.977,14439,-14370
7.974,14460,-14381
7.975,14457,-14379
7.975,14474,-14387
7.974,14489,-14377
7.973,14477,-14388
7.973,14489,-14379
7.972,14502,-14371
7.969,14512,-14374
7.971,14513,-14388
7.971,14531,-14378
7.97,14532,-14371
7.97,14535,-14377
7.968,14540,-14378
7.967,14531,-14376
7.967,14514,-14374
7.968,14500,-14386
7.967,14504,-14385
7.965,14504,-14376
7.965,14495,-14378
7.963,14492,-14380
7.963,14487,-14380
7.965,14467,-14380
7.964,14472,-14386
7.962,14463,-14375
7.962,14430,-14382
7.961,14427,-14382
7.959,14424,-14382
7.959,14403,-14384
7.959,14409,-14372
7.959,14403,-14376
7.957,14390,-14363
7.956,14371,-14381
7.956,14362,-14388
7.957,14363,-14389
7.956,14357,-14388
7.954,14343,-14385
7.957,14346,-14383
7.954,14336,-14387
7.953,14327,-14393
7.953,14330,-14393
7.952,14340,-14390
7.952,14329,-14383
7.952,14315,-14378
7.949,14317,-14391
7.949,14313,-14394
7.95,14320,-14392
7.951,14314,-14389
7.951,14306,-14396
7.948,14312,-14395
7.946,14321,-14382
7.948,14319,-14383
7.946,14314,-14373
7.944,14308,-14385
7.944,14310,-14370
7.943,14329,-14380
7.942,14316,-14393
7.944,14315,-14386
7.943,14309,-14372
7.943,14306,-14400
7.939,14327,-14389
7.941,14331,-14393
7.939,14315,-14402
7.939,14340,-14390
7.94,14328,-14379
7.94,14322,-14380
7.94,14316,-14383
7.937,14319,-14392
7.939,14318,-14387
7.935,14312,-14396
7.936,14298,-14392
7.936,14294,-14382
7.935,14272,-14382
7.934,14249,-14386
7.934,14200,-14377
7.933,14190,-14379
7.932,14181,-14386
7.931,14197,-14394
7.931,14197,-14404
7.931,14228,-14393
7.929,14294,-14405
7.93,14366,-14405
7.929,14487,-14396
7.926,14637,-14389
7.927,14824,-14384
7.927,15033,-14364
7.927,15252,-14367
7.925,15438,-14372
7.924,15620,-14387
7.925,15772,-14378
7.924,15909,-14371
7.923,16040,-14394
7.921,16084,-14404
7.921,16094,-14402
7.921,16084,-14401
7.92,16036,-14416
7.919,15870,-14418
7.918,15744,-14435
7.919,15585,-14453
7.918,15396,-14455
7.919,15116,-14443
7.916,14910,-14453
7.917,14740,-14424
7.915,14634,-14424
7.915,14545,-14435
7.917,14509,-14434
7.914,14466,-14433
7.915,14448,-14429
7.912,14442,-14422
7.913,14409,-14424
7.911,14391,-14418
7.909,14400,-14420
7.91,14396,-14417
7.91,14395,-14393
7.908,14386,-14412
7.909,14377,-14399
7.908,14366,-14413
7.907,14359,-14403
7.907,14353,-14402
7.907,14346,-14397
7.906,14336,-14405
7.906,14336,-14405
7.903,14328,-14405
7.904,14339,-14404
7.903,14338,-14390
7.901,14335,-14407
7.902,14323,-14409
7.902,14325,-14414
7.902,14330,-14416
7.899,14329,-14416
7.901,14323,-14418
7.899,14320,-14419
7.899,14344,-14407
7.897,14339,-14399
7.895,14347,-14405
7.896,14346,-14400
7.895,14331,-14412
7.896,14337,-14404
7.896,14327,-14408
7.894,14331,-14398
7.893,14351,-14392
7.893,14343,-14408
7.892,14339,-14415
7.891,14341,-14417
7.89,14343,-14408
7.889,14346,-14408
7.889,14353,-14406
7.888,14365,-14418
7.887,14353,-14421
7.886,14359,-14416
7.886,14369,-14423
7.886,14359,-14421
7.884,14362,-14417
7.884,14363,-14411
7.884,14368,-14399
7.884,14366,-14383
7.883,14369,-14402
7.882,14372,-14402
7.881,14377,-14409
7.883,14375,-14424
7.881,14365,-14414
7.88,14363,-14414
7.879,14370,-14406
7.8789,14377,-14412
7.876,14376,-14416
7.876,14372,-14418
7.876,14378,-14417
7.875,14380,-14420
7.876,14377,-14420
7.874,14381,-14419
7.874,14391,-14424
7.873,14390,-14418
7.874,14401,-14416
7.872,14400,-14421
7.87,14399,-14421
7.868,14400,-14421
7.87,14407,-14400
7.869,14406,-14409
7.868,14410,-14410
7.868,14404,-14407
7.867,14417,-14399
7.866,14416,-14404
7.867,14421,-14421
7.865,14423,-14415
7.865,14426,-14406
7.863,14434,-14407
7.863,14433,-14420
7.862,14433,-14423
7.8639,14435,-14439
7.861,14433,-14434
7.861,14434,-14430
7.859,14443,-14424
7.86,14447,-14427
7.858,14454,-14422
7.857,14452,-14413
7.858,14465,-14414
7.8579,14462,-14421
7.855,14475,-14408
7.854,14472,-14398
7.856,14464,-14409
7.856,14476,-14416
7.856,14477,-14434
7.8539,14487,-14425
7.851,14492,-14422
7.8529,14504,-14432
7.8501,14498,-14418
7.852,14497,-14424
7.85,14507,-14412
7.8499,14516,-14416
7.848,14503,-14425
7.848,14527,-14427
7.847,14521,-14438
7.846,14528,-14437
7.846,14537,-14426
7.845,14544,-14426
7.846,14555,-14423
7.844,14546,-14424
7.844,14551,-14426
7.844,14552,-14425
7.843,14567,-14430
7.842,14567,-14445
7.842,14576,-14433
7.841,14569,-14439
7.84,14592,-14428
7.84,14587,-14432
7.838,14594,-14421
7.839,14607,-14413
7.838,14620,-14422
7.837,14611,-14418
7.836,14617,-14410
7.835,14621,-14418
7.836,14622,-14412
7.834,14633,-14426
7.8339,14631,-14438
7.8321,14637,-14441
7.834,14646,-14428
7.8339,14639,-14429
7.831,14642,-14420
7.832,14647,-14414
7.8329,14643,-14421
7.8299,14641,-14416
7.828,14640,-14416
7.827,14637,-14418
7.8279,14639,-14410
7.8251,14634,-14405
7.8279,14629,-14405
7.826,14628,-14404
7.826,14614,-14406
7.8259,14622,-14401
7.824,14624,-14400
7.823,14601,-14397
7.823,14598,-14397
7.8239,14594,-14392
7.821,14596,-14393
7.8209,14583,-14394
7.818,14575,-14409
7.819,14583,-14416
7.819,14572,-14419
7.8179,14550,-14414
7.816,14553,-14411
7.815,14548,-14420
7.816,14552,-14411
7.815,14549,-14419
7.815,14565,-14413
7.8139,14575,-14406
7.812,14589,-14406
7.811,14597,-14404
7.812,14600,-14395
7.811,14597,-14399
7.812,14585,-14411
7.8109,14581,-14396
7.809,14576,-14402
7.809,14579,-14399
7.81,14576,-14409
7.8089,14582,-14411
7.8069,14580,-14409
7.805,14580,-14405
7.8059,14585,-14400
7.8031,14583,-14399
7.805,14585,-14404
7.804,14589,-14400
7.8039,14592,-14393
7.802,14583,-14388
7.8019,14588,-14386
7.8,14580,-14392
7.8001,14599,-14393
7.8019,14587,-14402
7.799,14580,-14411
7.798,14581,-14413
7.7989,14590,-14372
7.797,14580,-14382
7.796,14567,-14399
7.797,14564,-14399
7.796,14568,-14411
7.795,14578,-14414
7.795,14581,-14413
7.795,14576,-14416
7.7939,14587,-14403
7.792,14572,-14403
7.7919,14574,-14380
7.79,14570,-14399
7.791,14569,-14399
7.7899,14567,-14401
7.788,14562,-14406
7.7871,14568,-14395
7.7889,14565,-14401
7.787,14572,-14401
7.7869,14565,-14391
7.785,14559,-14406
7.786,14557,-14406
7.785,14560,-14407
7.7849,14561,-14404
7.783,14559,-14401
7.782,14546,-14394
7.782,14548,-14391
7.783,14560,-14397
7.7819,14560,-14392
7.78,14559,-14392
7.7809,14556,-14393
7.779,14549,-14387
7.779,14547,-14393
7.778,14540,-14393
7.777,14548,-14395
7.776,14545,-14393
7.776,14545,-14386
7.7751,14541,-14375
7.7768,14545,-14385
7.773,14547,-14374
7.774,14545,-14371
7.773,14538,-14370
7.7729,14549,-14392
7.771,14533,-14398
7.7709,14537,-14393
7.7691,14527,-14417
7.7709,14538,-14373
7.7691,14533,-14375
7.7699,14532,-14364
7.7679,14524,-14381
7.766,14535,-14379
7.767,14522,-14389
7.7669,14522,-14394
7.765,14520,-14390
7.766,14519,-14398
7.7649,14521,-14396
7.7639,14518,-14395
7.7621,14517,-14386
7.7629,14514,-14386
7.761,14522,-14377
7.761,14524,-14372
7.76,14512,-14370
7.7599,14518,-14390
7.759,14521,-14389
7.7589,14510,-14388
7.758,14506,-14387
7.758,14505,-14400
7.7579,14510,-14388
7.756,14505,-14363
7.756,14505,-14372
7.755,14513,-14377
7.754,14509,-14372
7.7539,14501,-14379
7.753,14508,-14388
7.7519,14506,-14369
7.7511,14503,-14378
7.7519,14502,-14393
7.75,14501,-14390
7.7509,14507,-14368
7.7499,14508,-14374
7.748,14504,-14387
7.7481,14498,-14385
7.7498,14506,-14384
7.747,14504,-14380
7.746,14503,-14382
7.7459,14502,-14390
7.744,14505,-14385
7.745,14506,-14378
7.7449,14505,-14378
7.7431,14512,-14376
7.7439,14513,-14373
7.742,14504,-14368
7.741,14503,-14365
7.7409,14510,-14369
7.7401,14517,-14354
7.7409,14521,-14375
7.74,14536,-14376
7.7389,14533,-14379
7.7371,14549,-14372
7.7379,14563,-14374
7.7371,14587,-14373
7.7379,14594,-14366
7.736,14611,-14346
7.7359,14638,-14336
7.735,14635,-14353
7.735,14625,-14370
7.7349,14628,-14365
7.7339,14616,-14356
7.7319,14608,-14378
7.731,14609,-14370
7.731,14601,-14377
7.731,14599,-14374
7.7309,14608,-14369
7.73,14615,-14360
7.7299,14623,-14365
7.729,14636,-14364
7.7289,14633,-14359
7.727,14642,-14370
7.7269,14660,-14363
7.7259,14660,-14357
7.7251,14673,-14356
7.726,14690,-14349
7.7258,14691,-14351
7.723,14694,-14343
7.7229,14697,-14350
7.7211,14700,-14353
7.7221,14685,-14352
7.723,14681,-14359
7.7228,14667,-14354
7.72,14672,-14360
7.7199,14670,-14362
7.7191,14658,-14356
7.7199,14643,-14358
7.7189,14638,-14359
7.7171,14633,-14351
7.7179,14624,-14353
7.7169,14603,-14354
7.715,14582,-14367
7.7151,14576,-14372
7.7168,14571,-14364
7.7141,14557,-14365
7.7149,14546,-14366
7.7131,14540,-14363
7.7139,14535,-14359
7.7129,14527,-14351
7.7109,14523,-14343
7.71,14516,-14352
7.7101,14507,-14380
7.711,14499,-14371
7.7109,14493,-14358
7.7099,14496,-14373
7.7079,14495,-14368
7.7071,14494,-14372
7.7079,14494,-14372
7.706,14491,-14370
7.7059,14495,-14376
7.7051,14498,-14368
7.707,14488,-14377
7.7068,14495,-14375
7.7039,14483,-14381
7.702,14490,-14367
7.7021,14489,-14372
7.7039,14491,-14363
7.7019,14492,-14356
7.701,14481,-14354
7.701,14488,-14371
7.701,14493,-14382
7.7009,14493,-14365
7.6991,14483,-14364
7.6999,14492,-14371
7.6989,14493,-14363
7.6971,14496,-14368
7.6979,14500,-14350
7.696,14503,-14374
7.6961,14503,-14366
7.6969,14506,-14355
7.6949,14499,-14357
7.694,14495,-14361
7.6941,14493,-14373
7.6958,14489,-14368
7.6931,14490,-14372
7.6949,14481,-14365
7.6929,14469,-14373
7.6909,14441,-14361
7.6901,14395,-14348
7.6909,14368,-14349
7.689,14368,-14360
7.689,14376,-14363
7.6891,14384,-14366
7.6898,14406,-14370
7.687,14456,-14371
7.6869,14522,-14376
7.6861,14625,-14350
7.6869,14773,-14361
7.6861,14950,-14346
7.6868,15153,-14334
7.6839,15393,-14332
7.6831,15579,-14343
7.684,15751,-14338
7.6839,15903,-14344
7.6829,16042,-14331
7.681,16186,-14330
7.681,16290,-14328
7.681,16292,-14353
7.681,16279,-14370
7.6809,16248,-14372
7.6799,16110,-14379
7.6789,15990,-14380
7.6781,15841,-14390
7.6788,15664,-14397
7.6769,15383,-14388
7.676,15181,-14383
7.6761,14984,-14401
7.677,14857,-14403
7.6768,14776,-14389
7.6738,14715,-14399
7.6722,14692,-14382
7.6749,14676,-14377
7.6729,14661,-14378
7.672,14645,-14371
7.6719,14616,-14373
7.671,14620,-14371
7.6709,14634,-14368
7.6701,14635,-14369
7.6718,14633,-14353
7.6692,14618,-14360
7.6708,14616,-14354
7.669,14605,-14362
7.669,14599,-14360
7.669,14588,-14354
7.6688,14585,-14353
7.666,14581,-14359
7.666,14570,-14364
7.6659,14577,-14374
7.6652,14573,-14373
7.6676,14574,-14364
7.663,14571,-14362
7.6629,14574,-14358
7.6621,14574,-14340
7.663,14571,-14353
7.6628,14574,-14368
7.661,14572,-14376
7.6609,14574,-14379
7.66,14587,-14378
7.66,14591,-14365
7.6599,14586,-14362
7.6588,14586,-14356
7.657,14594,-14368
7.6572,14594,-14373
7.6589,14601,-14382
7.6579,14603,-14375
7.6571,14600,-14382
7.6577,14612,-14377
7.654,14608,-14368
7.6542,14617,-14365
7.6558,14619,-14365
7.654,14620,-14369
7.6539,14621,-14372
7.6531,14625,-14369
7.654,14618,-14372
7.6538,14623,-14372
7.652,14620,-14373
7.6518,14629,-14361
7.65,14627,-14357
7.65,14640,-14346
7.65,14643,-14346
7.6499,14641,-14359
7.649,14639,-14385
7.6491,14644,-14380
7.6499,14639,-14378
7.6488,14634,-14373
7.647,14635,-14379
7.6468,14645,-14381
7.6451,14650,-14388
7.6459,14654,-14374
7.6451,14660,-14364
7.6461,14666,-14366
7.6468,14666,-14377
7.6449,14661,-14364
7.644,14663,-14358
7.6439,14666,-14367
7.6428,14671,-14366
7.6411,14670,-14377
7.6419,14671,-14379
7.641,14677,-14382
7.641,14678,-14373
7.6409,14681,-14377
7.6399,14677,-14377
7.639,14683,-14371
7.6389,14680,-14378
7.638,14682,-14374
7.638,14689,-14379
7.638,14691,-14381
7.6377,14692,-14380
7.635,14699,-14368
7.6352,14706,-14356
7.6368,14700,-14364
7.6349,14705,-14362
7.634,14709,-14368
7.6342,14707,-14374
7.6357,14710,-14380
7.6331,14721,-14380
7.634,14721,-14383
7.6338,14724,-14381
7.632,14720,-14373
7.632,14725,-14374
7.632,14732,-14378
7.6319,14735,-14379
7.631,14741,-14382
7.6309,14747,-14370
7.6298,14740,-14376
7.6281,14747,-14374
7.6289,14754,-14379
7.6281,14753,-14386
7.6288,14762,-14381
7.627,14767,-14384
7.627,14780,-14375
7.6271,14770,-14377
7.6278,14776,-14380
7.6258,14781,-14370
7.624,14782,-14370
7.6239,14793,-14387
7.6232,14787,-14394
7.6248,14791,-14386
7.6232,14798,-14384
7.6247,14800,-14389
7.622,14807,-14379
7.6219,14805,-14377
7.621,14813,-14385
7.621,14819,-14383
7.621,14824,-14382
7.6208,14824,-14371
7.6191,14828,-14386
7.62,14838,-14391
7.6198,14838,-14384
7.6182,14847,-14378
7.6198,14852,-14364
7.6182,14852,-14370
7.6197,14860,-14363
7.617,14864,-14380
7.617,14862,-14370
7.6169,14863,-14378
7.616,14869,-14388
7.6158,14879,-14383
7.614,14872,-14389
7.6139,14883,-14360
7.6132,14886,-14367
7.6149,14882,-14361
7.614,14884,-14374
7.614,14885,-14366
7.6138,14885,-14364
7.6118,14881,-14369
7.6103,14882,-14372
7.6128,14876,-14371
7.611,14877,-14364
7.611,14870,-14350
7.6107,14874,-14355
7.6082,14866,-14350
7.61,14862,-14358
7.6099,14855,-14354
7.6089,14846,-14358
7.6081,14853,-14359
7.609,14840,-14362
7.6087,14834,-14359
7.6061,14840,-14360
7.6068,14830,-14360
7.605,14834,-14368
7.605,14838,-14358
7.6051,14831,-14364
7.6059,14827,-14370
7.605,14827,-14354
7.605,14824,-14342
7.6048,14819,-14356
7.6031,14813,-14356
7.6039,14812,-14358
7.6027,14806,-14374
7.6002,14816,-14365
7.6019,14812,-14374
7.6012,14805,-14373
7.6028,14810,-14372
7.601,14806,-14376
7.6007,14808,-14371
7.5982,14806,-14372
7.5999,14806,-14370
7.599,14803,-14376
7.5989,14799,-14375
7.598,14800,-14376
7.5979,14805,-14367
7.597,14810,-14362
7.5971,14810,-14374
7.598,14807,-14361
7.5978,14806,-14367
7.5959,14804,-14369
7.595,14799,-14367
7.5949,14802,-14369
7.594,14799,-14374
7.594,14795,-14368
7.594,14795,-14369
7.5939,14796,-14364
7.593,14794,-14366
7.593,14794,-14367
7.5929,14791,-14367
7.592,14791,-14371
7.592,14790,-14374
7.5919,14795,-14372
7.5908,14794,-14368
7.5891,14792,-14353
7.5897,14794,-14361
7.5871,14790,-14366
7.5879,14791,-14368
7.5871,14783,-14369
7.588,14776,-14369
7.588,14780,-14370
7.588,14774,-14372
7.5879,14777,-14365
7.587,14775,-14373
7.5869,14776,-14365
7.5861,14769,-14375
7.5866,14771,-14379
7.5832,14773,-14365
7.585,14764,-14356
7.5849,14767,-14357
7.584,14759,-14351
7.5838,14759,-14344
7.5821,14759,-14371
7.5832,14768,-14381
7.5847,14758,-14377
7.5822,14763,-14387
7.5838,14769,-14375
7.5819,14761,-14366
7.581,14757,-14365
7.5811,14765,-14368
7.5817,14763,-14367
7.5791,14749,-14376
7.5799,14752,-14372
7.579,14757,-14377
7.579,14754,-14374
7.5789,14751,-14366
7.578,14761,-14364
7.5781,14761,-14357
7.5788,14757,-14363
7.5771,14758,-14365
7.578,14756,-14357
7.5779,14755,-14354
7.5769,14754,-14372
7.5759,14748,-14377
7.575,14745,-14386
7.5749,14747,-14378
7.574,14748,-14377
7.5739,14751,-14369
7.5731,14750,-14372
7.5742,14750,-14369
7.5758,14746,-14366
7.5739,14743,-14358
7.5728,14737,-14355
7.5711,14731,-14372
7.5719,14740,-14371
7.571,14734,-14368
7.5709,14734,-14370
7.57,14736,-14368
7.57,14734,-14366
7.5701,14731,-14368
7.5708,14733,-14358
7.569,14725,-14362
7.5689,14723,-14365
7.568,14721,-14374
7.568,14718,-14373
7.5678,14717,-14375
7.5661,14714,-14379
7.567,14724,-14366
7.5669,14722,-14370
7.566,14716,-14366
7.566,14714,-14365
7.5659,14723,-14352
7.565,14708,-14361
7.5651,14721,-14359
7.5658,14719,-14365
7.564,14709,-14379
7.5642,14713,-14377
7.5656,14718,-14374
7.5629,14721,-14359
7.5622,14721,-14360
7.564,14719,-14366
7.5638,14718,-14364
7.5619,14709,-14368
7.5612,14711,-14372
7.5629,14712,-14378
7.5619,14713,-14367
7.5608,14716,-14366
7.5591,14714,-14369
7.56,14717,-14371
7.56,14721,-14368
7.5599,14719,-14363
7.5591,14724,-14352
7.5599,14727,-14354
7.5589,14727,-14359
7.558,14744,-14356
7.5579,14754,-14357
7.557,14766,-14350
7.5569,14777,-14370
7.5561,14797,-14362
7.557,14811,-14346
7.5568,14817,-14340
7.555,14822,-14363
7.5551,14819,-14362
7.5557,14809,-14362
7.554,14811,-14372
7.554,14810,-14367
7.5539,14800,-14356
7.553,14798,-14353
7.5529,14799,-14365
7.5522,14803,-14358
7.5538,14814,-14363
7.5519,14816,-14373
7.5512,14823,-14365
7.553,14830,-14366
7.5526,14839,-14367
7.5499,14849,-14366
7.5491,14848,-14358
7.5499,14860,-14364
7.549,14874,-14353
7.549,14883,-14359
7.549,14881,-14353
7.5489,14879,-14358
7.548,14878,-14357
7.548,14863,-14370
7.548,14855,-14364
7.5477,14853,-14366
7.5461,14851,-14361
7.547,14846,-14360
7.5467,14839,-14361
7.5451,14824,-14376
7.5457,14814,-14380
7.5441,14808,-14376
7.545,14798,-14369
7.5449,14771,-14374
7.544,14753,-14372
7.5439,14743,-14360
7.5433,14732,-14375
7.5449,14727,-14367
7.544,14715,-14364
7.5439,14710,-14367
7.543,14711,-14360
7.5426,14699,-14360
7.5401,14694,-14363
7.5411,14679,-14378
7.5417,14671,-14379
7.5403,14665,-14375
7.5417,14662,-14373
7.5401,14657,-14378
7.541,14661,-14368
7.5407,14664,-14366
7.539,14658,-14363
7.539,14656,-14361
7.539,14652,-14370
7.5389,14652,-14368
7.5379,14647,-14368
7.5371,14647,-14365
7.5377,14646,-14369
7.5359,14640,-14371
7.5351,14645,-14364
7.536,14650,-14364
7.536,14656,-14367
7.5359,14645,-14357
7.5351,14656,-14352
7.536,14654,-14368
7.5359,14645,-14353
7.5349,14650,-14359
7.534,14652,-14365
7.5341,14652,-14370
7.5349,14659,-14372
7.5339,14659,-14359
7.5331,14665,-14355
7.5337,14660,-14355
7.532,14659,-14359
7.5321,14663,-14359
7.533,14659,-14359
7.533,14649,-14361
7.5327,14647,-14373
7.5309,14643,-14380
7.5301,14638,-14363
7.531,14614,-14360
7.531,14573,-14357
7.5307,14529,-14362
7.529,14533,-14356
7.529,14530,-14361
7.5289,14534,-14367
7.5279,14546,-14365
7.5273,14598,-14372
7.5289,14669,-14383
7.528,14757,-14358
7.5279,14894,-14355
7.5269,15060,-14345
7.5259,15279,-14331
7.5253,15496,-14331
7.5269,15690,-14341
7.5259,15866,-14327
7.5253,16022,-14332
7.5267,16147,-14335
7.5247,16284,-14352
7.5234,16402,-14348
7.5256,16404,-14364
7.5231,16403,-14366
7.524,16392,-14362
7.5239,16278,-14358
7.523,16144,-14361
7.5231,16029,-14367
7.5239,15854,-14377
7.523,15597,-14398
7.5227,15386,-14401
7.5213,15184,-14402
7.5227,15062,-14395
7.5211,14951,-14383
7.522,14879,-14376
7.5217,14849,-14364
7.5201,14837,-14354
7.5207,14825,-14353
7.5191,14806,-14364
7.5199,14783,-14359
7.5189,14775,-14369
7.5181,14788,-14358
7.5191,14797,-14353
7.5197,14795,-14347
7.518,14786,-14344
7.5181,14776,-14342
7.5187,14764,-14338
7.5171,14761,-14348
7.5177,14750,-14355
7.5161,14744,-14365
7.5169,14738,-14370
7.5161,14741,-14363
7.5169,14736,-14360
7.516,14742,-14358
7.516,14744,-14357
7.5157,14743,-14353
7.5141,14743,-14349
7.5149,14742,-14341
7.514,14742,-14340
7.514,14741,-14350
7.5143,14739,-14348
7.516,14745,-14351
7.5157,14749,-14356
7.5139,14752,-14354
7.5129,14759,-14338
7.5121,14760,-14339
7.5129,14772,-14347
7.5121,14776,-14345
7.5129,14776,-14359
7.512,14776,-14357
7.512,14777,-14354
7.5117,14786,-14357
7.5099,14784,-14364
7.509,14785,-14352
7.5091,14794,-14360
7.5099,14800,-14353
7.509,14806,-14347
7.5091,14800,-14348
7.51,14807,-14346
7.5099,14810,-14345
7.5087,14809,-14345
7.5072,14806,-14351
7.5077,14815,-14347
7.5061,14814,-14347
7.5072,14822,-14345
7.5081,14825,-14341
7.5087,14825,-14339
7.5069,14836,-14350
7.5061,14838,-14352
7.5067,14831,-14356
7.5053,14838,-14361
7.5067,14840,-14369
7.5052,14849,-14370
7.5057,14852,-14361
7.5042,14857,-14354
7.5049,14861,-14351
7.504,14866,-14349
7.504,14865,-14353
7.5038,14861,-14361
7.503,14865,-14354
7.5028,14867,-14359
7.5022,14868,-14360
7.503,14873,-14365
7.5028,14880,-14345
7.5023,14886,-14349
7.5035,14889,-14358
7.5012,14890,-14350
7.502,14888,-14352
7.502,14898,-14364
7.502,14893,-14364
7.502,14895,-14364
7.5017,14897,-14369
7.5,14904,-14372
7.5,14909,-14370
7.5,14913,-14372
7.4999,14919,-14362
7.4992,14921,-14365
7.4997,14927,-14358
7.498,14928,-14365
7.4981,14938,-14359
7.4989,14936,-14355
7.4981,14938,-14359
7.4985,14942,-14361
7.4963,14947,-14366
7.4978,14956,-14365
7.497,14966,-14354
7.4972,14975,-14347
7.4977,14977,-14349
7.4962,14981,-14364
7.4972,14980,-14369
7.4977,14978,-14366
7.496,14973,-14366
7.496,14982,-14363
7.4958,14983,-14359
7.4948,14992,-14364
7.494,15003,-14368
7.4943,15010,-14369
7.4955,15013,-14345
7.493,15013,-14346
7.4933,15018,-14351
7.4948,15016,-14365
7.4939,15024,-14378
7.4932,15027,-14372
7.4937,15043,-14379
7.4922,15036,-14376
7.493,15043,-14383
7.4928,15050,-14367
7.4919,15054,-14368
7.491,15052,-14363
7.4913,15058,-14381
7.4928,15059,-14388
7.4918,15056,-14383
7.4908,15060,-14387
7.49,15074,-14378
7.49,15077,-14390
7.4897,15084,-14383
7.4885,15090,-14392
7.4907,15094,-14374
7.4892,15102,-14373
7.49,15110,-14369
7.49,15106,-14358
7.4895,15112,-14362
7.4872,15109,-14370
7.4878,15113,-14368
7.4872,15120,-14363
7.488,15122,-14366
7.488,15127,-14366
7.488,15125,-14368
7.4877,15130,-14366
7.4862,15125,-14367
7.4872,15132,-14362
7.4875,15126,-14357
7.4852,15123,-14365
7.4858,15125,-14365
7.4852,15124,-14361
7.486,15119,-14365
7.4858,15120,-14356
7.4848,15113,-14340
7.4838,15114,-14340
7.4832,15106,-14346
7.4842,15105,-14347
7.4848,15092,-14353
7.4838,15091,-14355
7.4832,15094,-14340
7.4838,15089,-14358
7.483,15082,-14368
7.483,15085,-14361
7.4828,15078,-14357
7.4818,15073,-14355
7.4813,15071,-14354
7.4828,15076,-14362
7.4817,15074,-14360
7.4802,15066,-14349
7.4812,15066,-14355
7.4818,15065,-14354
7.4807,15069,-14349
7.4792,15070,-14353
7.4798,15067,-14359
7.479,15066,-14355
7.479,15067,-14350
7.4792,15062,-14351
7.4798,15056,-14349
7.4787,15057,-14355
7.4775,15065,-14355
7.48,15065,-14352
7.4797,15061,-14356
7.4782,15060,-14357
7.479,15067,-14351
7.4788,15066,-14344
7.4777,15059,-14343
7.4762,15054,-14355
7.477,15050,-14356
7.477,15048,-14363
7.4768,15044,-14351
7.4763,15041,-14354
7.478,15046,-14354
7.4782,15049,-14354
7.4783,15046,-14358
7.4753,15044,-14371
7.4767,15036,-14363
7.4753,15039,-14365
7.4767,15041,-14363
7.4748,15039,-14367
7.4742,15036,-14359
7.475,15036,-14355
7.4752,15036,-14357
7.4757,15033,-14374
7.4742,15044,-14366
7.4747,15037,-14364
7.4732,15037,-14360
7.4738,15036,-14366
7.473,15039,-14358
7.473,15030,-14362
7.4732,15031,-14362
7.474,15030,-14367
7.4735,15037,-14361
7.4713,15030,-14360
7.4727,15027,-14363
7.4713,15030,-14355
7.4728,15034,-14352
7.472,15037,-14348
7.4718,15039,-14352
7.4708,15029,-14343
7.47,15026,-14354
7.47,15029,-14372
7.4698,15024,-14368
7.469,15022,-14370
7.4687,15015,-14360
7.4675,15023,-14340
7.4698,15020,-14353
7.469,15021,-14345
7.4688,15023,-14355
7.4682,15018,-14367
7.4687,15022,-14373
7.4672,15018,-14381
7.4682,15016,-14364
7.4688,15010,-14367
7.4678,15016,-14362
7.467,15018,-14362
7.4667,15018,-14358
7.4653,15011,-14365
7.4668,15015,-14360
7.466,15017,-14346
7.4658,15005,-14362
7.4653,15003,-14356
7.4672,15006,-14363
7.4675,14996,-14383
7.4648,15003,-14383
7.4642,15002,-14378
7.4648,15005,-14378
7.464,15000,-14378
7.464,15004,-14376
7.4642,15001,-14367
7.4645,14994,-14369
7.4623,14996,-14368
7.4637,14987,-14380
7.4622,14988,-14376
7.463,14985,-14382
7.463,14989,-14376
7.4628,14992,-14370
7.462,14985,-14365
7.462,14988,-14365
7.462,14980,-14373
7.462,14983,-14373
7.4622,14981,-14374
7.4625,14982,-14371
7.4602,14984,-14380
7.461,14987,-14374
7.461,14985,-14379
7.4608,14990,-14381
7.4602,14997,-14383
7.4608,14999,-14372
7.4598,14999,-14371
7.4592,15001,-14374
7.4596,15017,-14378
7.4582,15032,-14378
7.459,15039,-14375
7.459,15051,-14362
7.4588,15073,-14353
7.458,15081,-14375
7.458,15085,-14383
7.458,15083,-14383
7.4578,15088,-14379
7.4572,15085,-14375
7.4577,15082,-14378
7.4564,15074,-14374
7.4582,15067,-14388
7.4588,15069,-14391
7.4576,15084,-14381
7.4562,15089,-14383
7.4568,15103,-14375
7.456,15123,-14379
7.4562,15127,-14375
7.457,15134,-14387
7.4572,15135,-14375
7.4576,15137,-14378
7.456,15155,-14375
7.4558,15168,-14373
7.455,15175,-14375
7.4548,15173,-14384
7.454,15174,-14384
7.4542,15172,-14383
7.455,15153,-14392
7.4548,15156,-14395
7.4542,15154,-14388
7.4548,15139,-14382
7.454,15125,-14391
7.4538,15115,-14392
7.4532,15101,-14398
7.454,15092,-14394
7.4542,15082,-14393
7.4546,15070,-14386
7.453,15050,-14384
7.453,15039,-14387
7.4528,15025,-14385
7.452,15009,-14385
7.452,15000,-14381
7.4518,14995,-14380
7.4512,14983,-14380
7.4518,14983,-14391
7.451,14981,-14379
7.4512,14972,-14391
7.4522,14968,-14400
7.4524,14958,-14397
7.4504,14957,-14395
7.452,14941,-14391
7.4516,14935,-14391
7.4504,14940,-14397
7.4515,14936,-14389
7.449,14939,-14397
7.4494,14932,-14397
7.4505,14928,-14398
7.4478,14932,-14389
7.4475,14935,-14391
7.4496,14931,-14390
7.448,14927,-14397
7.448,14930,-14384
7.448,14929,-14399
7.448,14920,-14412
7.4482,14925,-14406
7.4486,14932,-14394
7.4474,14932,-14392
7.4486,14929,-14394
7.447,14925,-14405
7.4472,14928,-14401
7.4478,14930,-14390
7.4472,14921,-14396
7.4478,14927,-14414
7.4472,14928,-14409
7.448,14928,-14413
7.4478,14931,-14409
7.447,14926,-14398
7.447,14932,-14393
7.4466,14922,-14402
7.445,14916,-14401
7.4452,14908,-14401
7.4458,14904,-14408
7.4452,14888,-14408
7.4458,14867,-14405
7.445,14829,-14399
7.4446,14800,-14402
7.4432,14798,-14404
7.444,14804,-14408
7.4436,14805,-14410
7.4424,14820,-14420
7.4444,14869,-14423
7.4454,14932,-14412
7.4434,15034,-14415
7.4446,15177,-14408
7.4432,15360,-14406
7.444,15574,-14398
7.4438,15803,-14389
7.4432,15970,-14396
7.4438,16138,-14386
7.4428,16284,-14380
7.4422,16413,-14382
7.443,16552,-14385
7.4428,16621,-14397
7.442,16628,-14419
7.4424,16636,-14417
7.4436,16566,-14399
7.4418,16423,-14427
7.4412,16324,-14439
7.4416,16223,-14429
7.4404,16040,-14435
7.4416,15787,-14451
7.4404,15585,-14448
7.442,15404,-14441
7.4418,15274,-14441
7.4408,15163,-14440
7.4402,15105,-14440
7.4408,15079,-14430
7.44,15074,-14416
7.4402,15070,-14414
7.4406,15034,-14406
7.4392,15012,-14407
7.4402,15019,-14407
7.4406,15038,-14413
7.4388,15037,-14416
7.4384,15031,-14416
7.4398,15033,-14416
7.4388,15019,-14424
7.438,15014,-14417
7.4378,15013,-14410
7.437,15000,-14411
7.4372,14992,-14415
7.438,14986,-14417
7.4382,14982,-14422
7.4388,14972,-14428
7.4382,14975,-14420
7.4388,14976,-14418
7.4382,14979,-14416
7.4386,14987,-14414
7.4372,14987,-14413
7.4378,14987,-14415
7.4372,14994,-14414
7.4378,14991,-14424
7.4364,14988,-14420
7.4348,14988,-14429
7.4378,14988,-14428
7.4372,14995,-14422
7.4376,14997,-14435
7.4356,15002,-14433
7.434,15009,-14424
7.434,15005,-14424
7.4344,14999,-14417
7.4362,15004,-14421
7.4366,15011,-14422
7.4356,15016,-14434
7.4376,15014,-14431
7.436,15032,-14420
7.4358,15025,-14423
7.435,15034,-14420
7.435,15026,-14439
7.435,15033,-14440
7.435,15029,-14441
7.4348,15026,-14438
7.434,15032,-14437
7.434,15030,-14439
7.4342,15036,-14437
7.435,15038,-14439
7.435,15044,-14442
7.4346,15049,-14425
7.4332,15050,-14417
7.434,15046,-14430
7.4338,15046,-14435
7.433,15056,-14434
7.433,15056,-14442
7.4332,15057,-14447
7.434,15068,-14434
7.434,15061,-14444
7.4338,15070,-14431
7.4332,15069,-14433
7.4338,15071,-14441
7.4332,15077,-14424
7.4342,15078,-14433
7.4346,15086,-14444
7.433,15085,-14443
7.4332,15082,-14444
7.4336,15083,-14439
7.4322,15089,-14441
7.433,15097,-14431
7.4328,15110,-14432
7.4322,15105,-14438
7.4324,15112,-14440
7.4306,15107,-14444
7.4328,15116,-14426
7.4322,15119,-14424
7.4332,15122,-14438
7.4334,15122,-14442
7.4312,15125,-14454
7.4322,15131,-14451
7.4326,15137,-14444
7.4312,15140,-14438
7.432,15143,-14448
7.4322,15140,-14453
7.4326,15148,-14455
7.4312,15143,-14460
7.432,15138,-14459
7.4322,15150,-14463
7.4328,15150,-14461
7.432,15157,-14454
7.4318,15159,-14452
7.4312,15161,-14456
7.4318,15170,-14460
7.431,15176,-14466
7.4306,15182,-14444
7.4294,15184,-14458
7.431,15185,-14457
7.431,15187,-14450
7.431,15187,-14461
7.4308,15184,-14469
7.4302,15192,-14466
7.431,15208,-14461
7.431,15215,-14462
7.4308,15212,-14456
7.4302,15219,-14453
7.431,15226,-14449
7.4308,15223,-14458
7.4302,15224,-14462
7.4312,15229,-14459
7.4322,15238,-14478
7.4332,15236,-14478
7.4334,15243,-14467
7.431,15244,-14468
7.431,15255,-14463
7.4308,15252,-14467
7.43,15252,-14463
7.43,15264,-14464
7.43,15266,-14465
7.43,15272,-14464
7.43,15277,-14475
7.4304,15284,-14474
7.4316,15287,-14468
7.4296,15298,-14463
7.4286,15304,-14465
7.4312,15296,-14459
7.4318,15304,-14463
7.4308,15307,-14461
7.43,15311,-14464
7.43,15312,-14477
7.4302,15306,-14468
7.4312,15321,-14463
7.432,15317,-14455
7.4318,15322,-14447
7.4312,15320,-14442
7.4318,15322,-14452
7.431,15323,-14456
7.431,15320,-14459
7.4312,15318,-14460
7.4318,15311,-14460
7.431,15312,-14455
7.4312,15309,-14468
7.4316,15307,-14461
7.4302,15307,-14442
7.4312,15305,-14463
7.4318,15298,-14459
7.431,15286,-14453
7.4312,15289,-14445
7.432,15288,-14450
7.4318,15283,-14455
7.431,15273,-14453
7.4312,15275,-14449
7.4322,15271,-14449
7.4328,15270,-14455
7.4322,15265,-14445
7.433,15269,-14448
7.4326,15264,-14453
7.4314,15255,-14449
7.4328,15264,-14448
7.4318,15260,-14455
7.4314,15265,-14447
7.4328,15257,-14448
7.432,15267,-14448
7.4322,15262,-14451
7.4326,15266,-14448
7.4312,15273,-14448
7.4322,15269,-14443
7.433,15271,-14443
7.4332,15273,-14444
7.434,15265,-14444
7.434,15264,-14452
7.4336,15262,-14452
7.432,15261,-14466
7.432,15265,-14466
7.4322,15266,-14466
7.4332,15266,-14469
7.4338,15260,-14469
7.4334,15262,-14466
7.4348,15258,-14449
7.4338,15255,-14438
7.4332,15252,-14433
7.434,15252,-14435
7.4338,15251,-14424
7.433,15249,-14421
7.4332,15240,-14440
7.434,15249,-14460
7.434,15248,-14457
7.434,15248,-14451
7.434,15242,-14459
7.4342,15241,-14445
7.4348,15243,-14443
7.4342,15238,-14452
7.4352,15240,-14455
7.4358,15231,-14460
7.4352,15232,-14451
7.4362,15240,-14450
7.4366,15245,-14454
7.435,15246,-14452
7.4352,15242,-14438
7.4364,15244,-14448
7.4376,15236,-14447
7.4364,15237,-14448
7.438,15240,-14451
7.4378,15233,-14452
7.4368,15229,-14446
7.4362,15231,-14446
7.437,15236,-14441
7.4372,15234,-14443
7.4376,15233,-14445
7.4364,15230,-14443
7.438,15228,-14444
7.438,15225,-14450
7.4384,15223,-14435
7.4396,15225,-14441
7.4378,15220,-14451
7.4374,15215,-14437
7.439,15228,-14444
7.439,15231,-14451
7.4388,15220,-14452
7.438,15223,-14452
7.4382,15220,-14447
7.439,15213,-14446
7.439,15214,-14446
7.4394,15217,-14441
7.4406,15218,-14436
7.4392,15211,-14429
7.44,15221,-14452
7.4404,15215,-14437
7.4418,15220,-14446
7.441,15214,-14432
7.4412,15209,-14445
7.4418,15206,-14454
7.4414,15200,-14451
7.443,15212,-14448
7.4428,15212,-14452
7.442,15214,-14439
7.4422,15212,-14436
7.443,15214,-14441
7.4432,15215,-14452
7.444,15215,-14440
7.444,15220,-14445
7.4438,15212,-14453
7.4432,15215,-14454
7.444,15223,-14456
7.4442,15231,-14456
7.4445,15244,-14453
7.4432,15258,-14452
7.4442,15266,-14445
7.4448,15275,-14450
7.444,15283,-14443
7.4444,15290,-14446
7.446,15291,-14450
7.4462,15290,-14442
7.447,15288,-14442
7.447,15286,-14455
7.447,15285,-14460
7.4466,15291,-14452
7.4455,15279,-14450
7.447,15291,-14452
7.447,15303,-14446
7.4472,15302,-14437
7.448,15320,-14454
7.448,15330,-14456
7.448,15342,-14448
7.4485,15349,-14435
7.4498,15352,-14442
7.4492,15360,-14451
7.4496,15369,-14440
7.4485,15378,-14442
7.4498,15382,-14445
7.4492,15386,-14442
7.45,15386,-14448
7.45,15384,-14449
7.4502,15378,-14451
7.451,15378,-14457
7.4512,15372,-14452
7.4518,15362,-14457
7.4512,15359,-14450
7.452,15342,-14442
7.4524,15326,-14457
7.4538,15311,-14460
7.4532,15309,-14460
7.4538,15280,-14462
7.4532,15265,-14456
7.454,15245,-14454
7.454,15242,-14452
7.454,15233,-14448
7.454,15217,-14443
7.454,15217,-14450
7.4542,15206,-14448
7.4548,15194,-14439
7.4545,15188,-14444
7.456,15178,-14447
7.456,15168,-14444
7.456,15164,-14451
7.4562,15159,-14453
7.4568,15148,-14440
7.4562,15146,-14434
7.4572,15140,-14450
7.4582,15140,-14450
7.4588,15138,-14444
7.4582,15126,-14448
7.4595,15131,-14449
7.4605,15125,-14454
7.4595,15123,-14451
7.461,15115,-14455
7.4608,15115,-14450
7.4605,15120,-14447
7.462,15116,-14447
7.4622,15126,-14442
7.463,15123,-14440
7.4625,15118,-14440
7.461,15113,-14444
7.4617,15111,-14445
7.4638,15114,-14445
7.4632,15116,-14450
7.4642,15112,-14457
7.4648,15112,-14458
7.4642,15116,-14447
7.465,15120,-14447
7.4648,15119,-14446
7.4645,15109,-14459
7.4655,15110,-14459
7.4645,15097,-14456
7.466,15100,-14454
7.4662,15108,-14456
7.4665,15100,-14451
7.4655,15088,-14460
7.467,15087,-14446
7.4675,15074,-14443
7.4688,15039,-14449
7.468,14991,-14443
7.4682,14989,-14442
7.4692,14980,-14447
7.4702,14971,-14458
7.4705,14973,-14457
7.4692,15007,-14462
7.47,15083,-14468
7.47,15162,-14460
7.47,15279,-14458
7.4705,15447,-14446
7.472,15650,-14425
7.4722,15853,-14423
7.4728,16057,-14422
7.4725,16210,-14428
7.474,16376,-14428
7.474,16492,-14439
7.4742,16600,-14442
7.475,16739,-14444
7.4752,16746,-14447
7.476,16765,-14444
7.4758,16756,-14444
7.4757,16633,-14448
7.478,16495,-14464
7.4775,16423,-14482
7.4765,16279,-14472
7.4778,16065,-14478
7.4772,15850,-14479
7.478,15669,-14481
7.4782,15522,-14471
7.4792,15388,-14468
7.4795,15294,-14470
7.4785,15253,-14461
7.4798,15245,-14462
7.4792,15231,-14451
7.4802,15203,-14452
7.4812,15179,-14459
7.4818,15177,-14455
7.481,15182,-14457
7.481,15204,-14451
7.4812,15208,-14448
7.4825,15201,-14444
7.4838,15185,-14444
7.483,15179,-14432
7.4835,15166,-14435
7.485,15158,-14434
7.4848,15154,-14438
7.4845,15153,-14442
7.4858,15149,-14449
7.485,15144,-14446
7.4852,15147,-14451
7.4862,15148,-14444
7.4868,15132,-14446
7.4862,15139,-14452
7.4872,15145,-14452
7.488,15139,-14449
7.4885,15140,-14448
7.49,15141,-14440
7.49,15142,-14443
7.4902,15141,-14445
7.4908,15141,-14433
7.4902,15142,-14427
7.491,15147,-14426
7.4912,15145,-14428
7.4915,15150,-14427
7.4902,15147,-14438
7.4915,15149,-14450
7.493,15159,-14448
7.4935,15162,-14438
